5.294083870820917, 5.199010124924371
5.660730444899093, 5.1903011801719
6.027425402003671, 5.112646422795905
6.394071976081847, 5.103937478043463
6.760718550160022, 5.095228533290992
7.127268358185393, 5.224411213785714
7.493963315289971, 5.146756456409662
7.860609889368146, 5.1380475116571915
8.227159697393517, 5.267230192151914
8.593951420550901, 5.051683809528754
8.960549611602675, 5.111920677399837
9.327099419628045, 5.241103357894559
9.693745993706221, 5.232394413142089
10.060392567784396, 5.223685468389647
10.427039141862572, 5.214976523637205
10.793685715940748, 5.206267578884734
11.160235523966119, 5.335450259379456
11.526930481070696, 5.257795502003404
11.89352867212247, 5.318032369874544
12.260126863174243, 5.378269237745656
12.62677343725242, 5.369560292993214
12.99337162830419, 5.429797160864297
13.360018202382367, 5.421088216111855
13.72661639343414, 5.481325083982995
14.09316620145951, 5.6105077644776316
14.45966762645848, 5.808636257595907
14.826362583563057, 5.730981500219912
15.192912391588429, 5.860164180714577
15.559462199613797, 5.989346861209242
15.925915241586367, 6.2564211669511
16.29251343263814, 6.316658034822183
16.658966474610704, 6.583732340564012
17.02546789960967, 6.781860833682259
17.391824175529432, 7.186826764671196
17.758277217502, 7.453901070413082
18.124778642500964, 7.6520295635313005
18.491134918420727, 8.056995494520265
18.85753957736689, 8.393015612885648
19.223847470260246, 8.866927356498195
19.59034889525922, 9.065055849616442
19.95694708631099, 9.125292717487554
20.32354527736276, 9.185529585358637
20.689804787229715, 9.728387141594766
20.933800389377545, 10.343093492038548
21.055290168674233, 11.374377699807951
21.17677994797092, 12.405661907577326
21.237089390381644, 13.541816325074109
21.297398832792364, 14.67797074257092
21.418126579423213, 16.795151499161477
21.419033761168258, 15.502417512469577
21.44748298069293, 18.500834616198745
21.662013319761634, 17.564985928008355
21.66288421423688, 16.323961300784106
21.663609959632918, 15.289774111430575
21.705461277471084, 13.703052760560468
21.91021824520648, 12.181406580201696
21.911089139681724, 10.940381952977475
21.97299522196373, 9.801324553896507
22.0960816411317, 8.557396945088158
22.402225240693543, 7.688316833333147
22.76906534687733, 7.403824638086462
23.135711920955504, 7.395115693333992
23.502068196875264, 7.8000816243229565
23.86890830305905, 7.515589429076243
24.23599032437485, 6.886368170711677
24.60316911174345, 6.119255287099946
24.970105983980044, 5.696871466606098
25.336849324111025, 5.5502708966064915
25.70368943029481, 5.265778701359778
26.070336004372987, 5.257069756607336
26.43698257845116, 5.248360811854866
26.803629152529336, 5.239651867102424
27.17042087568672, 5.024105484479293
27.537067449764898, 5.015396539726822
27.903714023843072, 5.00668759497438
28.270312214894844, 5.0669244628454635
28.637007171999425, 4.989269705469468
29.0036537460776, 4.980560760717026
29.370300320155774, 4.9718518159645555
29.73689851120755, 5.032088683835667
30.103593468312127, 4.9544339264596715
30.4702400423903, 4.945724981707201
30.836886616468476, 4.937016036954759
31.203581573573054, 4.8593612795787635
31.57027653067763, 4.781706522202683
31.936923104755806, 4.772997577450241
32.303618061860384, 4.695342820074245
32.67026463593856, 4.686633875321775
33.03691121001674, 4.677924930569333
33.40360616712132, 4.600270173193337
33.77020435817309, 4.66050704106442
34.136850932251264, 4.651798096311978
34.50349750632944, 4.643089151559536
34.870192463434016, 4.565434394183512
35.236790654485795, 4.625671262054624
35.60343722856397, 4.616962317302182
35.97003541961574, 4.677199185173265
36.305995059198125, 4.858816970531677
36.70332856777209, 4.659781295668353
37.07002352487667, 4.582126538292357
37.43667009895484, 4.573417593539915
37.803316673033024, 4.564708648787445
38.1699632471112, 4.555999704035003
38.536658204215776, 4.478344946659007
38.90330477829395, 4.469636001906537
39.26990296934572, 4.529872869777648
39.63645277737109, 4.65905555027237
40.00305096842286, 4.7192924181434535
40.369697542501044, 4.7105834733910115
40.73648926565843, 4.495037090767852
41.103184222763005, 4.417382333391828
41.46978241381478, 4.477619201262939
41.83642898789295, 4.4689102565104974
42.203075561971126, 4.460201311758027
42.56972213604931, 4.451492367005585
42.93636871012748, 4.442783422253143
43.30311205025846, 4.296182852253509
43.669710241310234, 4.356419720124677
44.03635681538841, 4.347710775372207
44.40310015551939, 4.201110205372601
44.708638967251204, 4.193852751412237
