5.369026053945415, 6.85277736499404
5.736957504027561, 6.857121301830887
6.1048889541097076, 6.8614652386677335
6.472820404191854, 6.86580917550458
6.840751854274, 6.870153112341484
7.208683304356146, 6.874497049178331
7.5766147544382925, 6.878840986015177
7.944546204520439, 7.0202602630374145
8.312477654602585, 7.093141869967042
8.680409104684731, 7.097485806803888
9.048340554766877, 7.101829743640735
9.416272004849024, 7.243249020662972
9.78420345493117, 7.316130627592543
10.152134905013316, 7.320474564429389
10.520066355095462, 7.39335617135896
10.88799780517761, 7.46623777828853
11.255929255259757, 7.470581715125434
11.623860705341903, 7.612000992147671
11.991792155424049, 7.753420269169908
12.359723605506195, 7.757764206006755
12.727655055588341, 7.830645812936325
13.095586505670488, 8.10914043014401
13.463517955752634, 8.182022037073523
13.83144940583478, 8.323441314095817
14.199380855916926, 8.533398261210834
14.567312305999073, 8.811892878418462
14.935243756081219, 9.021849825533366
15.303175206163365, 9.026193762370212
15.671106656245511, 9.37322604967062
16.03903810632766, 9.651720666878248
16.406969556409805, 9.998752954178656
16.77490100649195, 10.277247571386283
17.142832456574098, 10.829892868964805
17.510763906656244, 11.1769251562651
17.87869535673839, 11.798108123936231
18.246626806820537, 12.487828761700086
18.58389730272917, 12.765961384171362
18.98248970698483, 13.38750634657896
19.350421157066975, 14.077226984342758
19.71835260714912, 14.766947622106613
20.086284057231268, 15.045442239314298
20.454215507313414, 15.615221954415915
20.82214695739556, 16.630496525120122
21.067434590783655, 18.20975889514341
21.190078407477706, 20.19879930677729
21.33725098751056, 21.351969739069432
21.338028169014084, 22.38887872690691
21.37404413251878, 23.38797293450631
21.4353660408658, 24.519568480508667
21.4353660408658, 27.398150624402035
21.4353660408658, 26.16447256273341
21.496687949212827, 28.42693966526531
21.558009857559853, 31.30624579863155
21.558009857559853, 30.004030066870257
21.80329749094795, 29.869850684576022
21.80329749094795, 28.636172622907452
21.80329749094795, 27.402494561238882
21.80329749094795, 25.757590479014084
21.925941307642, 24.52536039629115
21.925941307642, 23.29168233462252
21.925941307642, 21.646778252397723
22.048585124336046, 20.414548169674788
22.048585124336046, 19.180870108006218
22.048585124336046, 17.53596602578142
22.171228941030098, 16.7149619636146
22.171228941030098, 15.686896912224086
22.293872757724145, 14.249053819223036
22.47783848276522, 13.32596724139006
22.78444802450034, 12.335790972409995
23.152379474582485, 12.340134909246842
23.52031092466463, 12.824242536732584
23.76559855805273, 13.718128205828918
23.888242374746778, 13.034199483847544
24.174411280366225, 12.626352080831168
24.378817641522975, 11.395087317405228
24.647887323943664, 10.149325706303898
25.114680541687267, 9.210569748112562
25.482611991769414, 8.666612324207904
25.85054344185156, 8.396805580673913
26.218474891933706, 8.332611847418036
26.586406342015852, 7.994267433791379
26.954337792098, 7.9300737005356154
27.322269242180145, 7.934417637372462
27.69020069226229, 7.938761574209309
28.058132142344437, 7.943105511046156
28.426063592426583, 7.741836437604945
28.79399504250873, 7.677642704349125
29.161926492590876, 7.750524311278639
29.529857942673022, 7.823405918208209
29.89778939275517, 7.827749855045113
30.265720842837315, 7.695018451696569
30.63365229291946, 7.630824718440692
31.001583743001607, 7.5666309851848155
31.369515193083753, 7.570974922021719
31.7374466431659, 7.575318858858566
32.10537809324805, 7.579662795695413
32.47330954333019, 7.584006732532259
32.84124099341234, 7.588350669369163
33.20917244349448, 7.524156936113343
33.577103893576634, 7.52850087295019
33.94503534365877, 7.601382479879703
34.31296679374093, 7.605726416716607
34.680898243823066, 7.6100703535534535
35.04882969390522, 7.6144142903903
35.41676114398736, 7.618758227227147
35.78469259406951, 7.623102164064051
36.15262404415165, 7.764521441086345
36.39791167753975, 8.178643419533728
36.76584312762189, 7.703223665721737
37.133774577704045, 7.63902993246586
37.5017060277862, 7.643373869302707
37.86963747786834, 7.647717806139553
38.23756892795049, 7.652061742976457
38.60550037803263, 7.656405679813304
38.973431828114784, 7.6607496166501505
39.34136327819692, 7.665093553486997
39.709294728279076, 7.669437490323901
40.077226178361215, 7.810856767346195
40.44515762844337, 7.883738374275708
40.81308907852551, 7.819544641019888
41.18102052860766, 7.686813237671345
41.5489519786898, 7.6911571745081915
41.91688342877195, 7.695501111345038
42.28481487885409, 7.699845048181885
42.652746328936246, 7.704188985018789
43.020677779018385, 7.708532921855635
43.38860922910054, 7.712876858692482
43.75654067918268, 7.717220795529329
44.12447212926483, 7.721564732366232
44.49240357934697, 7.657370999110412
44.7990131210821, 7.729528616567109
