5.136365018157544, 4.715295658616171
5.505362680531374, 4.651910984124413
5.99732079631147, 4.6588891134262695
6.366231232069027, 4.801359253338944
6.735228894442856, 4.737974578847172
7.104226556816686, 4.674589904355415
7.350205614706733, 4.678078969006336
7.554628633477782, 4.765568183867131
7.96506603281558, 4.892656445038085
8.333947393034379, 5.103744856418913
8.70291597986945, 5.108978453395295
9.071884566704522, 5.114212050371677
9.440882229078353, 5.050827375879919
9.809821740374666, 5.12467924432444
10.178790327209738, 5.129912841300822
10.54775891404481, 5.135146438277218
10.916727500879881, 5.1403800352535995
11.285696087714953, 5.145613632229981
11.654664674550025, 5.150847229206363
12.023516959230067, 5.430553912055331
12.392427394987623, 5.573024051968005
12.761395981822695, 5.578257648944387
13.130364568657766, 5.583491245920783
13.499216853337808, 5.863197928769736
13.86818544017288, 5.868431525746118
14.237066800391679, 6.079519937126946
14.60603538722675, 6.084753534103328
14.97491674744555, 6.295841945484142
15.466787636609373, 6.508674889190431
15.835668996828172, 6.719763300571259
16.20452128150821, 6.9994699834202265
16.57343171726577, 7.141940123332887
16.942254926407053, 7.490265077650008
17.311136286625853, 7.701353489030822
17.679901344689622, 8.186914986284236
18.04878270490842, 8.39800339766505
18.417605914049705, 8.746328351982172
18.78634189657471, 9.300508120703725
19.155048803560966, 9.923306160893418
19.523988314857277, 9.997158029337939
19.892898750614837, 10.139628169250628
20.26169288421736, 10.556571395035888
20.63045794228113, 11.042132892289288
20.937452018254188, 12.178695702327346
21.12084597896831, 14.754497680870998
21.121282112049673, 13.725223608848808
21.250503362763776, 15.834540402249445
21.36595277069563, 16.8165348895663
21.488128184555435, 18.739591022999832
21.610710655957853, 19.701991355879343
21.6938957723436, 16.88980524723567
21.81567206191412, 15.369743740771668
21.85930651233609, 13.529835988397139
21.983168307443847, 11.473032376678233
22.168219573867155, 10.137592881537572
22.476260369235494, 8.803897918722399
22.845403409303113, 8.397421886889902
23.21428476952191, 8.60851029827073
23.583137054201952, 8.888216981119683
23.952221943192054, 8.618977492223493
24.321597587569734, 7.663555288645824
24.690915080869896, 6.845369628004477
25.060058120937516, 6.4388935961719795
25.429143009927618, 6.169654107275775
25.79811159676269, 6.174887704252157
26.16722556129155, 5.8370299438878135
26.53622322366538, 5.773645269396056
26.90519181050045, 5.7788788663724375
27.274160397335525, 5.784112463348833
27.643128984170595, 5.789346060325215
28.01209757100567, 5.794579657301597
28.38106615784074, 5.799813254277979
28.6885399802033, 5.80417458509163
29.119090558127155, 5.604425633826295
29.42665160710599, 5.402932150235529
29.980060874050462, 5.5137099529023175
30.34907307419367, 5.416016142676483
30.718041661028742, 5.421249739652865
31.087010247863812, 5.426483336629246
31.455978834698886, 5.431716933605628
31.824947421533953, 5.436950530582024
32.19391600836903, 5.442184127558406
32.5628845952041, 5.4474177245347875
32.93185318203917, 5.452651321511169
33.30082176887424, 5.457884918487551
33.66979035570932, 5.463118515463933
34.03875894254439, 5.468352112440314
34.40772752937946, 5.47358570941671
34.77669611621453, 5.478819306393092
35.145664703049604, 5.484052903369474
35.51463328988468, 5.489286500345855
35.883601876719744, 5.494520097322237
36.25254138801606, 5.568371965766758
36.62159720146741, 5.367750748338722
36.990507637224965, 5.510220888251396
37.35947622406004, 5.515454485227778
37.728444810895105, 5.52068808220416
38.09741339773018, 5.5259216791805414
38.46638198456525, 5.531155276156923
38.835350571400326, 5.536388873133319
39.20431915823539, 5.541622470109701
39.573287745070466, 5.5468560670860825
39.94225633190554, 5.552089664062464
40.31119584320186, 5.625941532506985
40.68019350557568, 5.562556858015228
41.049162092410754, 5.567790454991609
41.41813067924583, 5.573024051968005
41.7870992660809, 5.578257648944387
42.15606785291597, 5.583491245920769
42.52503643975104, 5.58872484289715
42.894005026586115, 5.593958439873532
43.26297361342119, 5.599192036849914
43.631942200256255, 5.60442563382631
44.00091078709133, 5.609659230802691
44.3698793739264, 5.614892827779073
44.73887703630024, 5.551508153287315
44.984914245267795, 5.417760675001944
