Wavenumber [cm-1],Raman Intensity
160.07,7753
162.55,7806
165.03,7885.33
167.5,8008
169.97,8097.33
172.45,8208.33
174.92,8264
177.39,8385
179.86,8453.67
182.33,8537.67
184.8,8634
187.27,8728.67
189.74,8765.33
192.2,8855.67
194.67,8919.67
197.14,8956.67
199.6,8942.67
202.06,8940.33
204.53,8937
206.99,9028
209.45,8843.33
211.91,8880.47
214.37,8915.59
216.83,8950.92
219.29,8983.68
221.74,9013.05
224.2,9038.82
226.65,9063.11
229.11,9083.74
231.56,9103.84
234.02,9121.12
236.47,9137.72
238.92,9150.93
241.37,9164.43
243.82,9175.73
246.27,9184.12
248.72,9191.33
251.16,9199.39
253.61,9206.87
256.06,9214.99
258.5,9220.07
260.95,9225.43
263.39,9229.27
265.83,9234.75
268.27,9239.43
270.71,9244.2
273.15,9247.77
275.59,9251.27
278.03,9256.06
280.47,9259.75
282.91,9263.51
285.34,9264.89
287.78,9265.87
290.21,9267.47
292.64,9268.45
295.08,9268.19
297.51,9268.49
299.94,9269.15
302.37,9266.49
304.8,9266.77
307.23,9265.66
309.66,9263.57
312.08,9263.6
314.51,9263.63
316.94,9260.37
319.36,9256.82
321.78,9254.7
324.21,9254.03
326.63,9254.06
329.05,9253.96
331.47,9252.57
333.89,9253.24
336.31,9251.67
338.73,9250.91
341.15,9249.29
343.56,9248.8
345.98,9249.29
348.39,9249.15
350.81,9249.12
353.22,9247.63
355.63,9246.2
358.04,9246.95
360.46,9246.33
362.87,9246.37
365.27,9246.47
367.68,9246.73
370.09,9245.72
372.5,9244.65
374.9,9243.27
377.31,9239.9
379.71,9235.78
382.12,9232.6
384.52,9230.15
386.92,9225.7
389.32,9221.86
391.72,9219.09
394.12,9218.32
396.52,9214.33
398.92,9210.17
401.32,9207.89
403.71,9204.22
406.11,9201.72
408.5,9200.57
410.9,9195.19
413.29,9190.44
415.68,9187.48
418.07,9183.72
420.46,9179.93
422.85,9175.46
425.24,9169.78
427.63,9165.68
430.02,9159.76
432.4,9154.01
434.79,9147.98
437.17,9142.42
439.56,9136.26
441.94,9128.84
444.32,9120.53
446.71,9113.14
449.09,9105.44
451.47,9100.79
453.85,9095.9
456.22,9089.61
458.6,9082.88
460.98,9077.55
463.35,9068.98
465.73,9061.55
468.1,9053.76
470.48,9047.88
472.85,9041.89
475.22,9036.27
477.59,9032.37
479.96,9024.72
482.33,9019.37
484.7,9013.2
487.07,9003.99
489.44,8996.43
491.8,8986.51
494.17,8978.72
496.53,8970.07
498.9,8960.41
501.26,8952.02
503.62,8942.42
505.98,8932.06
508.34,8924.03
510.7,8917.06
513.06,8907.49
515.42,8899.86
517.78,8890.59
520.14,8881.87
522.49,8874.19
524.85,8864.47
527.2,8856.14
529.55,8845.61
531.91,8836.72
534.26,8828.03
536.61,8819.37
538.96,8809.44
541.31,8801.14
543.66,8792.01
546,8780.44
548.35,8767.43
550.7,8754.63
553.04,8743.18
555.39,8732.29
557.73,8719.02
560.07,8709.45
562.41,8696.67
564.76,8684.72
567.1,8671.85
569.44,8660.61
571.77,8649.98
574.11,8636.92
576.45,8626.57
578.79,8613.25
581.12,8602.26
583.46,8592.98
585.79,8579.8
588.12,8568.46
590.46,8556.23
592.79,8546.19
595.12,8534.77
597.45,8522.54
599.78,8511.87
602.1,8501.98
604.43,8490.5
606.76,8477.79
609.08,8466.36
611.41,8455.3
613.73,8443.92
616.06,8431.58
618.38,8417.76
620.7,8402.89
623.02,8390.09
625.34,8379.33
627.66,8366.05
629.98,8352.34
632.3,8338.26
634.61,8325.77
636.93,8313.68
639.25,8301.47
641.56,8290.54
643.87,8280.5
646.19,8269.36
648.5,8255.59
650.81,8244.98
653.12,8235.65
655.43,8224.4
657.74,8215
660.05,8205.78
662.35,8194.6
664.66,8182.28
666.97,8168.2
669.27,8157.55
671.57,8144.03
673.88,8131.93
676.18,8119.73
678.48,8107.5
680.78,8097.02
683.08,8084.67
685.38,8073.32
687.68,8060.72
689.98,8048.85
692.27,8036.6
694.57,8024.44
696.86,8010.16
699.16,7996.98
701.45,7983.54
703.74,7970.16
706.04,7955.94
708.33,7942.61
710.62,7930.17
712.91,7919.37
715.2,7909.6
717.48,7898.33
719.77,7886.27
722.06,7876.13
724.34,7864.68
726.63,7852.93
728.91,7842.33
731.19,7832.24
733.48,7819.81
735.76,7808.63
738.04,7796.85
740.32,7784.69
742.6,7774.76
744.87,7761.43
747.15,7748.82
749.43,7735.76
751.7,7722.73
753.98,7710.41
756.25,7696.69
758.53,7684.99
760.8,7673.2
763.07,7661.24
765.34,7650.55
767.61,7639
769.88,7627.41
772.15,7616.14
774.42,7603.93
776.68,7592.63
778.95,7579.51
781.21,7567.98
783.48,7555.86
785.74,7544.13
788,7531.45
790.27,7521.45
792.53,7510.85
794.79,7501.13
797.05,7491.44
799.31,7480.87
801.56,7470.98
803.82,7461.36
806.08,7452.02
808.33,7440.8
810.59,7431.1
812.84,7419.77
815.1,7407.24
817.35,7396.97
819.6,7387.77
821.85,7377.4
824.1,7364.37
826.35,7355.3
828.6,7344.19
830.84,7333.26
833.09,7322.72
835.34,7310.59
837.58,7300.46
839.83,7288.51
842.07,7278.19
844.31,7267
846.55,7255.14
848.8,7246.99
851.04,7236.38
853.27,7226.13
855.51,7214.07
857.75,7203.2
859.99,7189.59
862.22,7177.24
864.46,7165.28
866.69,7155.07
868.93,7143.95
871.16,7134
873.39,7123.36
875.63,7113.85
877.86,7103.78
880.09,7093.63
882.31,7082.15
884.54,7070.81
886.77,7059.33
889,7047.83
891.22,7037.05
893.45,7026.32
895.67,7013.89
897.9,6999.78
900.12,6989.28
902.34,6977.05
904.56,6966.51
906.78,6955.95
909,6945.09
911.22,6931.98
913.44,6918.2
915.65,6904.76
917.87,6891.72
920.08,6880.22
922.3,6868.2
924.51,6858.83
926.73,6848.25
928.94,6836.69
931.15,6825.96
933.36,6813.2
935.57,6802.07
937.78,6791.29
939.99,6778.41
942.19,6766.33
944.4,6755.23
946.61,6744.83
948.81,6734.46
951.02,6726.74
953.22,6717.86
955.42,6707.08
957.62,6694.52
959.82,6683.08
962.02,6672.46
964.22,6662.42
966.42,6652.07
968.62,6641.37
970.82,6631.28
973.01,6621.89
975.21,6612.28
977.4,6602.25
979.6,6592.24
981.79,6581.11
983.98,6571.09
986.17,6561.4
988.36,6552.05
990.55,6541.72
992.74,6530.76
994.93,6519.68
997.12,6510
999.3,6499.05
1001.49,6490.61
1003.67,6482.09
1005.86,6474.84
1008.04,6466.59
1010.22,6457.97
1012.41,6449.46
1014.59,6438.02
1016.77,6428.07
1018.95,6418.63
1021.12,6409.91
1023.3,6402.11
1025.48,6394.19
1027.66,6385.09
1029.83,6377.87
1032.01,6368.41
1034.18,6359.24
1036.35,6349.07
1038.52,6337.82
1040.7,6328.25
1042.87,6317.67
1045.04,6309.15
1047.2,6300.16
1049.37,6291.17
1051.54,6281.64
1053.71,6270.59
1055.87,6259.61
1058.04,6249.19
1060.2,6238.48
1062.36,6228.12
1064.53,6218.71
1066.69,6209.44
1068.85,6199.46
1071.01,6189.97
1073.17,6179.15
1075.33,6169.77
1077.49,6159.15
1079.64,6149.39
1081.8,6139.94
1083.95,6130.15
1086.11,6120.39
1088.26,6110.39
1090.42,6100.63
1092.57,6089.77
1094.72,6078.95
1096.87,6067.85
1099.02,6056.39
1101.17,6044.36
1103.32,6035.38
1105.47,6025.53
1107.61,6015.91
1109.76,6006.8
1111.9,5997.29
1114.05,5987.46
1116.19,5977.68
1118.33,5968.15
1120.47,5958.04
1122.62,5947.73
1124.76,5938.16
1126.9,5929.86
1129.03,5920.14
1131.17,5911.95
1133.31,5903.04
1135.45,5895.48
1137.58,5887.26
1139.72,5878.54
1141.85,5870.2
1143.98,5862.64
1146.12,5854.18
1148.25,5846.78
1150.38,5837.38
1152.51,5828.77
1154.64,5820.54
1156.77,5812.84
1158.89,5805.04
1161.02,5796.9
1163.15,5788.49
1165.27,5782.66
1167.4,5774.93
1169.52,5767.9
1171.64,5761.02
1173.76,5752.97
1175.88,5746.56
1178.01,5738.57
1180.13,5731.65
1182.24,5724.17
1184.36,5716.05
1186.48,5709.55
1188.6,5703.85
1190.71,5695.8
1192.83,5689.02
1194.94,5680.8
1197.05,5673.03
1199.17,5664.95
1201.28,5658.24
1203.39,5652.82
1205.5,5644.72
1207.61,5640.28
1209.72,5634.86
1211.82,5629.53
1213.93,5622.5
1216.04,5614.96
1218.14,5607.78
1220.25,5599.88
1222.35,5591.91
1224.45,5584.44
1226.56,5578.94
1228.66,5571.12
1230.76,5563.67
1232.86,5557.72
1234.96,5548.73
1237.06,5542.15
1239.15,5533.76
1241.25,5526.63
1243.35,5519
1245.44,5510.74
1247.54,5505.12
1249.63,5497.79
1251.72,5489.7
1253.81,5483.02
1255.91,5474.98
1258,5466.19
1260.09,5457.74
1262.17,5448.24
1264.26,5441.06
1266.35,5434.02
1268.44,5427.02
1270.52,5420.7
1272.61,5412.79
1274.69,5405.22
1276.77,5396.84
1278.86,5389.12
1280.94,5381.47
1283.02,5373.62
1285.1,5365.47
1287.18,5357.02
1289.26,5347.6
1291.34,5339.52
1293.41,5330.22
1295.49,5322.13
1297.56,5312.83
1299.64,5304.57
1301.71,5296.89
1303.79,5286.93
1305.86,5278.14
1307.93,5268.72
1310,5258.16
1312.07,5246.91
1314.14,5238.53
1316.21,5230.16
1318.28,5220.16
1320.34,5212.14
1322.41,5203.26
1324.47,5194.41
1326.54,5184.11
1328.6,5175.24
1330.66,5166.28
1332.73,5155.57
1334.79,5145.07
1336.85,5135.86
1338.91,5126.86
1340.97,5117.67
1343.03,5108.96
1345.08,5101.33
1347.14,5093.2
1349.19,5083.37
1351.25,5074.03
1353.3,5064.72
1355.36,5055.31
1357.41,5046.06
1359.46,5036.11
1361.51,5027.7
1363.56,5017.76
1365.61,5008.85
1367.66,4998.09
1369.71,4988.74
1371.76,4978.24
1373.8,4967.92
1375.85,4958.76
1377.89,4949.32
1379.94,4939.42
1381.98,4930.24
1384.02,4921.82
1386.07,4910.02
1388.11,4901.67
1390.15,4893.67
1392.19,4886.5
1394.22,4879.33
1396.26,4870.63
1398.3,4862.6
1400.34,4854.27
1402.37,4845.72
1404.41,4837.93
1406.44,4830.25
1408.47,4822.94
1410.51,4815.59
1412.54,4807.74
1414.57,4800.21
1416.6,4792.59
1418.63,4784.73
1420.66,4776.57
1422.68,4768.72
1424.71,4762.1
1426.74,4755.01
1428.76,4746.4
1430.79,4737.46
1432.81,4729.32
1434.83,4720.72
1436.85,4711.47
1438.88,4702.2
1440.9,4691.28
1442.92,4683.75
1444.94,4673.99
1446.95,4663.98
1448.97,4653.07
1450.99,4643.63
1453,4635.11
1455.02,4625.1
1457.03,4615.11
1459.05,4604.89
1461.06,4595
1463.07,4584.93
1465.08,4575.7
1467.09,4566.25
1469.1,4559.13
1471.11,4550.54
1473.12,4539.28
1475.13,4527.78
1477.13,4517.43
1479.14,4507.44
1481.15,4496.49
1483.15,4484.77
1485.15,4473.43
1487.16,4461.67
1489.16,4449.23
1491.16,4437.68
1493.16,4426.57
1495.16,4415.09
1497.16,4403.12
1499.16,4391.37
1501.15,4380.72
1503.15,4368.2
1505.15,4356.76
1507.14,4344.19
1509.14,4333.43
1511.13,4323.32
1513.12,4313.26
1515.11,4302.77
1517.1,4291.68
1519.09,4282.37
1521.08,4272.19
1523.07,4264.36
1525.06,4253.21
1527.05,4242.9
1529.03,4233.53
1531.02,4225.03
1533.01,4216.39
1534.99,4206.09
1536.97,4197.12
1538.96,4187.67
1540.94,4176.89
1542.92,4166.11
1544.9,4156.14
1546.88,4145.41
1548.86,4135.07
1550.84,4125.03
1552.81,4114.94
1554.79,4105.6
1556.76,4097.02
1558.74,4088.75
1560.71,4079.25
1562.69,4069.84
1564.66,4061.26
1566.63,4053.14
1568.6,4045.6
1570.57,4037.43
1572.54,4028.19
1574.51,4018.56
1576.48,4008.83
1578.45,4000.21
1580.41,3991.59
1582.38,3982.24
1584.34,3973.5
1586.31,3963.5
1588.27,3954.71
1590.23,3945.94
1592.19,3934.76
1594.16,3925.62
1596.12,3915.7
1598.07,3907.28
1600.03,3899.37
1601.99,3890.76
1603.95,3881.56
1605.9,3873.37
1607.86,3865.51
1609.82,3857.68
1611.77,3848.75
1613.72,3840.49
1615.68,3831.24
1617.63,3823.53
1619.58,3814.81
1621.53,3806.61
1623.48,3798.58
1625.43,3789.55
1627.37,3781.7
1629.32,3773.14
1631.27,3765.06
1633.21,3755.86
1635.16,3748.63
1637.1,3739.55
1639.05,3730.15
1640.99,3722.49
1642.93,3714.67
1644.87,3705.57
1646.81,3696.42
1648.75,3686.57
1650.69,3677.58
1652.63,3668.6
1654.56,3659.6
1656.5,3650.06
1658.44,3639.82
1660.37,3629.77
1662.31,3619.07
1664.24,3608.96
1666.17,3598.09
1668.1,3587.4
1670.03,3575.54
1671.96,3565.55
1673.89,3554.49
1675.82,3544.11
1677.75,3533.39
1679.68,3521.13
1681.6,3511.07
1683.53,3501.59
1685.46,3490.93
1687.38,3480.8
1689.3,3471.06
1691.23,3461.03
1693.15,3449.93
1695.07,3441.9
1696.99,3430.28
1698.91,3420.79
1700.83,3410.93
1702.75,3400.01
1704.66,3390.35
1706.58,3379.62
1708.5,3368.19
1710.41,3358.02
1712.32,3347.58
1714.24,3334.89
1716.15,3323.85
1718.06,3313.36
1719.97,3303.08
1721.88,3291.91
1723.79,3281.8
1725.7,3272.21
1727.61,3262.87
1729.52,3253.39
1731.43,3243.24
1733.33,3234.18
1735.24,3225.63
1737.14,3217.43
1739.04,3209.4
1740.95,3202.72
1742.85,3194.02
1744.75,3185.86
1746.65,3177.98
1748.55,3168.85
1750.45,3160
1752.35,3150.95
1754.25,3142.88
1756.14,3133.63
1758.04,3124.02
1759.93,3114.34
1761.83,3103.75
1763.72,3094.43
1765.61,3085.2
1767.51,3075
1769.4,3065.8
1771.29,3056.63
1773.18,3045.36
1775.07,3036.93
1776.96,3028.2
1778.84,3020.08
1780.73,3013.22
1782.62,3005.67
1784.5,2996.7
1786.39,2988.9
1788.27,2979.97
1790.15,2972.6
1792.04,2965.5
1793.92,2956.87
1795.8,2948.76
1797.68,2938.94
1799.56,2929.85
1801.44,2921.91
1803.32,2913.85
1805.19,2904.24
1807.07,2894.55
1808.94,2885.75
1810.82,2876.63
1812.69,2868.22
1814.57,2859.58
1816.44,2850.4
1818.31,2841.41
1820.18,2832.95
1822.05,2825
1823.92,2815.73
1825.79,2808.2
1827.66,2801.4
1829.53,2794.15
1831.39,2786.32
1833.26,2778.6
1835.12,2771.45
1836.99,2764.07
1838.85,2756.66
1840.71,2748.37
1842.58,2739.35
1844.44,2730.67
1846.3,2721.15
1848.16,2713.26
1850.02,2704.61
1851.87,2696.22
1853.73,2686.58
1855.59,2677.49
1857.44,2668.88
1859.3,2661
1861.15,2653.38
1863.01,2645.49
1864.86,2637.94
1866.71,2629.2
1868.56,2621.03
1870.41,2613.67
1872.26,2605.46
1874.11,2598.49
1875.96,2590.63
1877.81,2582.64
1879.66,2573.35
1881.5,2565.76
1883.35,2558.27
1885.19,2550.07
1887.04,2541.86
1888.88,2533.36
1890.72,2525.41
1892.56,2517.1
1894.41,2508.42
1896.25,2500.96
1898.09,2492.81
1899.92,2484.86
1901.76,2477.1
1903.6,2468.88
1905.44,2461.07
1907.27,2452.92
1909.11,2444.98
1910.94,2437.82
1912.77,2428.91
1914.61,2421.74
1916.44,2414.61
1918.27,2407.54
1920.1,2400.85
1921.93,2394.24
1923.76,2386.93
1925.59,2380.01
1927.41,2372.07
1929.24,2365.86
1931.07,2358.88
1932.89,2350.62
1934.72,2341.47
1936.54,2333.07
1938.36,2325.78
1940.19,2317.56
1942.01,2311.18
1943.83,2303.52
1945.65,2295.74
1947.47,2287.93
1949.29,2280.6
1951.1,2274.29
1952.92,2266.24
1954.74,2259.48
1956.55,2252.19
1958.37,2244.45
1960.18,2238.19
1961.99,2231.47
1963.81,2223.23
1965.62,2215.85
1967.43,2209.12
1969.24,2202.2
1971.05,2194.37
1972.86,2186.68
1974.67,2179.76
1976.47,2171.53
1978.28,2163.37
1980.09,2156.23
1981.89,2149.07
1983.7,2142.37
1985.5,2134.88
1987.3,2128.54
1989.11,2121.55
1990.91,2114.15
1992.71,2107.4
1994.51,2099.95
1996.31,2092.19
1998.11,2085.29
1999.9,2078.35
2001.7,2071.85
2003.5,2063.99
2005.29,2056.85
2007.09,2049.33
2008.88,2042.71
2010.67,2035.49
2012.47,2026.94
2014.26,2018.61
2016.05,2008.74
2017.84,2001.16
2019.63,1993.88
2021.42,1986.4
2023.21,1978.52
2024.99,1970.71
2026.78,1964.25
2028.57,1957.25
2030.35,1951.42
2032.14,1945.04
2033.92,1938.06
2035.7,1931.02
2037.48,1925.65
2039.27,1919.05
2041.05,1912.14
2042.83,1905.82
2044.61,1899.41
2046.38,1892.36
2048.16,1885.07
2049.94,1878.3
2051.71,1871.4
2053.49,1863.09
2055.27,1855.4
2057.04,1847.51
2058.81,1839.93
2060.59,1832.68
2062.36,1824.71
2064.13,1818.31
2065.9,1811.38
2067.67,1804.39
2069.44,1798.8
2071.21,1792.52
2072.97,1786.62
2074.74,1780.06
2076.51,1774.29
2078.27,1767.95
2080.04,1762.19
2081.8,1755.79
2083.56,1749.66
2085.32,1743.27
2087.09,1737.37
2088.85,1732.23
2090.61,1726.59
2092.37,1719.72
2094.12,1713.07
2095.88,1706.05
2097.64,1698.61
2099.4,1691.78
2101.15,1685.76
2102.91,1678.17
2104.66,1672.26
2106.41,1666.53
2108.17,1659.11
2109.92,1652.13
2111.67,1646.63
2113.42,1640.48
2115.17,1633.11
2116.92,1627.18
2118.67,1621.4
2120.42,1615.4
2122.16,1609.76
2123.91,1603.93
2125.65,1599.46
2127.4,1592.95
2129.14,1587.96
2130.89,1581.03
2132.63,1575.49
2134.37,1570.37
2136.11,1564.18
2137.85,1557.59
2139.59,1551.61
2141.33,1545.67
2143.07,1538.63
2144.81,1531.9
2146.54,1524.8
2148.28,1518.26
2150.01,1511.81
2151.75,1505.98
2153.48,1499.83
2155.22,1494.14
2156.95,1489.37
2158.68,1483.7
2160.41,1477.82
2162.14,1471.89
2163.87,1465.98
2165.6,1460.5
2167.33,1455.5
2169.05,1450.63
2170.78,1444.61
2172.51,1438.56
2174.23,1432.91
2175.96,1425.94
2177.68,1418.8
2179.4,1413.54
2181.12,1407.69
2182.85,1400.17
2184.57,1393.75
2186.29,1388.96
2188.01,1383.07
2189.72,1377.54
2191.44,1371.62
2193.16,1366.26
2194.87,1361.15
2196.59,1355.42
2198.31,1350.39
2200.02,1343.93
2201.73,1338.73
2203.45,1333.54
2205.16,1328.2
2206.87,1323.14
2208.58,1318.02
2210.29,1312.22
2212,1306.45
2213.71,1299.93
2215.41,1294.81
2217.12,1290.46
2218.83,1284.53
2220.53,1278.97
2222.24,1273.21
2223.94,1267.55
2225.64,1262.39
2227.35,1257.24
2229.05,1251.96
2230.75,1246.91
2232.45,1240.64
2234.15,1235.38
2235.85,1230.89
2237.55,1225.85
2239.24,1220.34
2240.94,1215.24
2242.64,1209.95
2244.33,1206.03
2246.03,1201.93
2247.72,1197.63
2249.41,1192.45
2251.11,1187.27
2252.8,1182.92
2254.49,1177.63
2256.18,1172.8
2257.87,1168.12
2259.56,1163.06
2261.25,1159.22
2262.93,1154.32
2264.62,1149.21
2266.31,1144.2
2267.99,1139.59
2269.68,1135.02
2271.36,1130.89
2273.04,1125.29
2274.73,1120.07
2276.41,1115.34
2278.09,1111.12
2279.77,1106.69
2281.45,1101.85
2283.13,1098.67
2284.8,1093.54
2286.48,1089.59
2288.16,1085.29
2289.83,1080.12
2291.51,1075.97
2293.18,1071.76
2294.86,1067.89
2296.53,1063.31
2298.2,1059.41
2299.88,1055.08
2301.55,1050.8
2303.22,1047.66
2304.89,1043.46
2306.55,1039.21
2308.22,1035.32
2309.89,1031.36
2311.56,1027.54
2313.22,1022.39
2314.89,1018.21
2316.55,1014.33
2318.22,1010.95
2319.88,1008.2
2321.54,1004.28
2323.2,1001.03
2324.86,996.37
2326.52,992.46
2328.18,989.07
2329.84,985.24
2331.5,980.89
2333.16,977.54
2334.81,973.4
2336.47,970.24
2338.12,966.88
2339.78,963.37
2341.43,959.33
2343.09,956.14
2344.74,951.55
2346.39,946.5
2348.04,943.23
2349.69,939.03
2351.34,935.02
2352.99,931.47
2354.64,927.41
2356.28,924.45
2357.93,921.42
2359.58,916.84
2361.22,912.17
2362.87,907.07
2364.51,902.96
2366.15,898.25
2367.8,893.67
2369.44,890.73
2371.08,887
2372.72,882.82
2374.36,878.79
2376,875.38
2377.64,870.76
2379.27,866.73
2380.91,862.42
2382.55,858.24
2384.18,854.37
2385.82,850.09
2387.45,846.37
2389.08,843.02
2390.71,838.78
2392.35,835.63
2393.98,831.98
2395.61,828.01
2397.24,823.81
2398.87,820.76
2400.49,815.62
2402.12,812.18
2403.75,808.32
2405.37,805.03
2407,800.55
2408.62,797.34
2410.25,793.2
2411.87,789.86
2413.49,787.37
2415.12,783.87
2416.74,780.72
2418.36,777.65
2419.98,774.22
2421.6,769.04
2423.21,765.28
2424.83,762.67
2426.45,759.75
2428.07,756.89
2429.68,753.93
2431.3,750.74
2432.91,747.8
2434.52,744.54
2436.14,741.24
2437.75,737.19
2439.36,733.89
2440.97,730.49
2442.58,726.75
2444.19,724.4
2445.8,721.4
2447.4,718.49
2449.01,714.97
2450.62,711.69
2452.22,708.33
2453.83,705.04
2455.43,701.24
2457.04,696.76
2458.64,692.67
2460.24,688.58
2461.84,685.15
2463.44,682.5
2465.04,678
2466.64,675.2
2468.24,672.59
2469.84,669.14
2471.44,666.15
2473.03,663.61
2474.63,659.82
2476.22,657.02
2477.82,653.38
2479.41,649.81
2481,646.61
2482.6,644.03
2484.19,639.94
2485.78,637.34
2487.37,635.55
2488.96,632.67
2490.55,628.47
2492.14,624.67
2493.72,621.67
2495.31,617.79
2496.9,614.11
2498.48,611.37
2500.07,608.23
2501.65,604.78
2503.23,601.42
2504.82,595.47
2506.4,593.13
2507.98,589.92
2509.56,586.89
2511.14,583.17
2512.72,579.86
2514.3,576.76
2515.87,574.66
2517.45,571.89
2519.03,568.24
2520.6,566.1
2522.18,564.97
2523.75,562.91
2525.32,560.26
2526.9,557.89
2528.47,554.9
2530.04,551.92
2531.61,549.55
2533.18,546.09
2534.75,542.81
2536.32,539.59
2537.89,536.51
2539.45,534.26
2541.02,531.11
2542.59,528.02
2544.15,525.41
2545.72,522.65
2547.28,518.98
2548.84,516.88
2550.41,514.19
2551.97,511.56
2553.53,508.79
2555.09,506.38
2556.65,504.36
2558.21,502.17
2559.76,500.54
2561.32,498.48
2562.88,495.89
2564.43,493.34
2565.99,490.98
2567.54,489.09
2569.1,489.33
2570.65,486.72
2572.2,484.12
2573.76,481.34
2575.31,480.09
2576.86,476.61
2578.41,474.52
2579.96,471.74
2581.51,469.29
2583.05,467.68
2584.6,463.8
2586.15,461
2587.69,458.36
2589.24,456.15
2590.78,453.83
2592.33,450.82
2593.87,449.37
2595.41,447.77
2596.95,445.45
2598.49,443.06
2600.03,439.47
2601.57,437.48
2603.11,435.56
2604.65,432.68
2606.19,431.04
2607.72,428.37
2609.26,426.4
2610.8,425.01
2612.33,422.98
2613.86,418.79
2615.4,416.41
2616.93,414.11
2618.46,411.8
2619.99,409.13
2621.52,405.67
2623.05,402.97
2624.58,401.21
2626.11,398.46
2627.64,397.05
2629.17,395.2
2630.69,392.37
2632.22,390.04
2633.74,387.28
2635.27,385.75
2636.79,383.09
2638.32,379.73
2639.84,378.72
2641.36,376.16
2642.88,373.28
2644.4,371.45
2645.92,368.85
2647.44,367.43
2648.96,364.58
2650.47,362.38
2651.99,360.67
2653.51,358.22
2655.02,356.72
2656.54,354.66
2658.05,352.13
2659.57,350.71
2661.08,349.07
2662.59,348.03
2664.1,345.68
2665.61,342.82
2667.12,340.58
2668.63,338.43
2670.14,336.43
2671.65,333.37
2673.16,331.15
2674.66,329.01
2676.17,328.49
2677.67,326.85
2679.18,324.04
2680.68,322.48
2682.18,321.46
2683.69,320.46
2685.19,318.26
2686.69,314.93
2688.19,313.84
2689.69,312.34
2691.19,310.67
2692.69,309.41
2694.19,307.15
2695.68,305.17
2697.18,303.68
2698.68,301.26
2700.17,299.62
2701.66,298.64
2703.16,297.46
2704.65,296.22
2706.14,294.47
2707.64,292.57
2709.13,291.37
2710.62,290.53
2712.11,288.79
2713.59,286.94
2715.08,284.56
2716.57,282.63
2718.06,281.24
2719.54,279.24
2721.03,276.93
2722.51,274.66
2724,273.02
2725.48,272.13
2726.96,270.75
2728.45,269.92
2729.93,268.14
2731.41,267.02
2732.89,266.1
2734.37,264.78
2735.85,262.75
2737.33,260.94
2738.8,259.77
2740.28,259.04
2741.76,257.59
2743.23,256.28
2744.71,254.14
2746.18,252.44
2747.65,251.21
2749.13,249.54
2750.6,247.73
2752.07,246.24
2753.54,244.46
2755.01,243.64
2756.48,242.37
2757.95,239.66
2759.42,238.24
2760.88,237.35
2762.35,235.15
2763.82,232.99
2765.28,231.03
2766.75,229.64
2768.21,227.89
2769.67,225.95
2771.14,224.57
2772.6,223.38
2774.06,221.74
2775.52,220.49
2776.98,218.11
2778.44,216.72
2779.9,215.72
2781.35,214.6
2782.81,214.06
2784.27,212.64
2785.72,211.15
2787.18,209.72
2788.63,207.79
2790.09,206.46
2791.54,204.57
2792.99,202.86
2794.45,200.8
2795.9,199.27
2797.35,198.28
2798.8,196.24
2800.25,195.12
2801.69,193.76
2803.14,191.8
2804.59,190.89
2806.04,190.67
2807.48,190.71
2808.93,189.52
2810.37,187.88
2811.81,185.91
2813.26,184.33
2814.7,182.81
2816.14,181.85
2817.58,181.67
2819.02,181.67
2820.46,179.65
2821.9,178.41
2823.34,178.24
2824.78,177.82
2826.22,176.14
2827.65,174.42
2829.09,173.17
2830.52,172.43
2831.96,171.37
2833.39,170.33
2834.82,169.91
2836.26,170.41
2837.69,169.87
2839.12,168.45
2840.55,167.2
2841.98,165.57
2843.41,164.51
2844.84,162.59
2846.27,162.28
2847.69,162.53
2849.12,162.08
2850.55,161.96
2851.97,161.89
2853.39,161.93
2854.82,161.14
2856.24,159.82
2857.66,159.01
2859.09,158.04
2860.51,157.12
2861.93,156.61
2863.35,156.57
2864.77,156.15
2866.19,155.54
2867.6,154.99
2869.02,154.7
2870.44,154.67
2871.85,154.26
2873.27,150.91
2874.68,151.16
2876.1,150.15
2877.51,150.3
2878.92,151.65
2880.33,151.9
2881.74,151.45
2883.16,150.53
2884.57,149.75
2885.97,149.98
2887.38,149.98
2888.79,148.63
2890.2,149.09
2891.6,149.49
2893.01,149.13
2894.42,149.13
2895.82,148.13
2897.22,148.07
2898.63,147.53
2900.03,147.58
2901.43,147.87
2902.83,148.9
2904.23,149.35
2905.63,148.73
2907.03,148.42
2908.43,148.1
2909.83,147.86
2911.23,147.33
2912.62,147.53
2914.02,148.08
2915.42,148.66
2916.81,148.83
2918.2,148.91
2919.6,149.11
2920.99,149.48
2922.38,149.65
2923.77,148.36
2925.16,147.28
2926.55,146.61
2927.94,145.85
2929.33,145.81
2930.72,148.31
2932.11,147.46
2933.5,146.81
2934.88,146.2
2936.27,144.72
2937.65,143.2
2939.04,141.72
2940.42,140.95
2941.8,140.64
2943.18,140.84
2944.57,139.49
2945.95,138.71
2947.33,136.58
2948.71,134.9
2950.09,134.01
2951.46,132.12
2952.84,130.22
2954.22,128.48
2955.6,127.19
2956.97,126.17
2958.35,124.37
2959.72,122.41
2961.09,121.05
2962.47,119.11
2963.84,117.07
2965.21,115.18
2966.58,112.74
2967.95,111.42
2969.32,109.49
2970.69,107.7
2972.06,106.44
2973.43,103.74
2974.8,102.29
2976.16,100.5
2977.53,97.46
2978.89,93.91
2980.26,92.07
2981.62,89.93
2982.98,88.47
2984.35,86.38
2985.71,84.79
2987.07,82.76
2988.43,80.28
2989.79,78.77
2991.15,75.86
2992.51,73.46
2993.87,72.46
2995.22,71.29
2996.58,70.03
2997.94,68.24
2999.29,65.66
3000.65,64.51
3002,62.83
3003.36,60.78
3004.71,59.19
3006.06,56.76
3007.41,54.72
3008.76,53.33
3010.11,51.68
3011.46,50.03
3012.81,48.67
3014.16,47.05
3015.51,45.22
3016.85,42.21
3018.2,40.88
3019.55,40.11
3020.89,38.57
3022.24,37.59
3023.58,35.9
3024.92,34.11
3026.27,32.03
3027.61,30.03
3028.95,29.57
3030.29,27.79
3031.63,25.21
3032.97,23.82
3034.31,23.33
3035.65,23.36
3036.98,22.54
3038.32,20.47
3039.66,18.59
3040.99,17.13
3042.33,16.42
3043.66,15.82
3044.99,14.3
3046.33,13.88
3047.66,12.81
3048.99,11.2
3050.32,9.95
3051.65,7.59
3052.98,6.33
3054.31,5.18
3055.64,3.82
3056.96,3.33
3058.29,2.67
3059.62,2.26
3060.94,1.82
3062.27,1.06
3063.59,1.07
3064.92,0.54
3066.24,0.35
3067.56,2.37
3068.88,3.2
3070.21,2.73
3071.53,2.61
3072.85,3.2
3074.17,3.51
3075.48,4.48
3076.8,5.65
3078.12,6.63
3079.44,7.72
3080.75,8.29
3082.07,9.24
3083.38,10.02
3084.7,11.24
3086.01,11.02
3087.32,11.03
3088.64,11.8
3089.95,13.5
3091.26,13.45
3092.57,13.63
3093.88,13.95
3095.19,14.7
3096.5,15.54
3097.8,16.78
3099.11,17.34
3100.42,17.69
3101.72,16.92
3103.03,17.08
3104.33,18.2
3105.64,17.6
3106.94,18.3
3108.24,19.27
3109.54,19.66
3110.84,20.86
3112.15,21.46
3113.45,22.35
3114.75,22.51
3116.04,22.8
3117.34,23.41
3118.64,24.04
3119.94,24.13
3121.23,23.77
3122.53,24.68
3123.82,26.47
3125.12,27.67
3126.41,28.3
3127.7,29.32
3129,29.08
3130.29,29.17
3131.58,29.61
3132.87,29.15
3134.16,29.07
3135.45,30.37
3136.74,32.22
3138.03,32.38
3139.31,33.23
3140.6,33.98
3141.89,34.44
3143.17,35.26
3144.46,36.44
3145.74,37.36
3147.02,37.02
3148.31,37.33
3149.59,38.15
3150.87,37.71
3152.15,37.78
3153.43,38.92
3154.71,39.65
3155.99,40.15
3157.27,40.36
3158.55,39.96
3159.82,39.69
3161.1,40.24
3162.38,40.95
3163.65,41.41
3164.93,41.47
3166.2,41.42
3167.47,42.17
3168.75,43.24
3170.02,43.28
3171.29,43.8
3172.56,43.89
3173.83,43.82
3175.1,44.28
3176.37,45.16
3177.64,45.59
3178.91,46.77
3180.17,47.56
3181.44,48.67
3182.7,48.5
3183.97,48.51
3185.23,48.41
3186.5,49.21
3187.76,48.94
3189.02,48.82
3190.29,49.07
3191.55,19.33
3192.81,46.67
3194.07,74.33
3195.33,19.33
3196.59,64
3197.85,33.33
3199.1,25.67
3200.36,70
3201.62,77.33
3202.87,65.67
3204.13,82.33
3205.38,58.67
3206.63,65.67
3207.89,30.67
3209.14,42.33
3210.39,35.33
3211.64,58.67
3212.89,52.67
3214.14,84
3215.39,53
