Wavenumber [cm-1],Raman Intensity
160.07,44113.33
162.55,44813.33
165.03,45062.67
167.5,45638
169.97,46093.33
172.45,46295.67
174.92,46940.33
177.39,47232.67
179.86,47568
182.33,48096.67
184.8,48425.67
187.27,48772.67
189.74,49191.33
192.2,49448
194.67,49590
197.14,49803
199.6,49812.33
202.06,49890
204.53,50089
206.99,49889.67
209.45,49135.1
211.91,49299.23
214.37,49443.46
216.83,49585.62
219.29,49712.39
221.74,49827.22
224.2,49936.63
226.65,50031.97
229.11,50122.98
231.56,50203.93
234.02,50272.42
236.47,50328.14
238.92,50378.63
241.37,50419.36
243.82,50451.42
246.27,50475.79
248.72,50494.21
251.16,50513.8
253.61,50529.01
256.06,50542.38
258.5,50554.96
260.95,50564.93
263.39,50582.52
265.83,50593.54
268.27,50608.87
270.71,50631.26
273.15,50646.81
275.59,50664.41
278.03,50683.36
280.47,50696.6
282.91,50705.45
285.34,50723.07
287.78,50735.66
290.21,50746.93
292.64,50759.18
295.08,50767.56
297.51,50776.7
299.94,50786.32
302.37,50792.11
304.8,50795.4
307.23,50798.09
309.66,50805.21
312.08,50805.2
314.51,50807.63
316.94,50810.37
319.36,50808.34
321.78,50811.33
324.21,50815.03
326.63,50813.5
329.05,50810.46
331.47,50806.89
333.89,50801.2
336.31,50803.97
338.73,50806.2
341.15,50803.41
343.56,50804.15
345.98,50809.42
348.39,50816.65
350.81,50818.96
353.22,50823.59
355.63,50824.08
358.04,50828
360.46,50835.12
362.87,50831.94
365.27,50836.02
367.68,50835.8
370.09,50831.47
372.5,50829.33
374.9,50823.77
377.31,50818.09
379.71,50812.49
382.12,50807.86
384.52,50796.15
386.92,50798.64
389.32,50791.21
391.72,50783.85
394.12,50777.28
396.52,50773.24
398.92,50771.98
401.32,50769.67
403.71,50764.18
406.11,50765.21
408.5,50761.1
410.9,50761.89
413.29,50760.8
415.68,50748.14
418.07,50740.47
420.46,50728.73
422.85,50712.18
425.24,50697.96
427.63,50686.08
430.02,50670.89
432.4,50658.38
434.79,50639.85
437.17,50615.54
439.56,50598.1
441.94,50576.17
444.32,50554.02
446.71,50526.07
449.09,50503.36
451.47,50474.01
453.85,50446.11
456.22,50420.67
458.6,50400.49
460.98,50373.46
463.35,50351.6
465.73,50321.67
468.1,50298.41
470.48,50276.72
472.85,50249.67
475.22,50224.89
477.59,50201.26
479.96,50170.99
482.33,50143.09
484.7,50102.65
487.07,50076.45
489.44,50037.11
491.8,49997.8
494.17,49953.65
496.53,49906.68
498.9,49867.43
501.26,49821.15
503.62,49773.08
505.98,49722.89
508.34,49671.31
510.7,49617.18
513.06,49568.34
515.42,49517.33
517.78,49462.99
520.14,49416.41
522.49,49363.28
524.85,49305.91
527.2,49253.38
529.55,49200.54
531.91,49145.83
534.26,49094.39
536.61,49035.15
538.96,48977.18
541.31,48917.28
543.66,48859.41
546,48797.86
548.35,48745.63
550.7,48689.59
553.04,48629.85
555.39,48565.75
557.73,48510.18
560.07,48443.18
562.41,48385.79
564.76,48327.08
567.1,48268.93
569.44,48208.75
571.77,48145.85
574.11,48080.34
576.45,48019.3
578.79,47956.41
581.12,47893.37
583.46,47822.28
585.79,47760.61
588.12,47692.01
590.46,47626.2
592.79,47565.45
595.12,47494.73
597.45,47430.72
599.78,47364.74
602.1,47301.03
604.43,47235.34
606.76,47172.92
609.08,47109.79
611.41,47045.37
613.73,46986.1
616.06,46923.11
618.38,46865.63
620.7,46810.67
623.02,46750.37
625.34,46686.32
627.66,46625.54
629.98,46567.82
632.3,46512.8
634.61,46457
636.93,46400.26
639.25,46346.21
641.56,46294.34
643.87,46238.6
646.19,46180.07
648.5,46131.06
650.81,46079.28
653.12,46027.3
655.43,45983.87
657.74,45936.74
660.05,45880.07
662.35,45819.8
664.66,45764.83
666.97,45710.63
669.27,45652.33
671.57,45597.28
673.88,45535.09
676.18,45466.61
678.48,45396.2
680.78,45325.98
683.08,45256.56
685.38,45181.33
687.68,45102.25
689.98,45023.53
692.27,44944.3
694.57,44862.35
696.86,44781.22
699.16,44703.2
701.45,44626.92
703.74,44551.86
706.04,44479.47
708.33,44407.72
710.62,44334.89
712.91,44264.27
715.2,44194.4
717.48,44132.21
719.77,44074.34
722.06,44010.95
724.34,43948.21
726.63,43890.75
728.91,43830.53
731.19,43772.62
733.48,43715.28
735.76,43655.29
738.04,43592.76
740.32,43536.72
742.6,43470.95
744.87,43403.94
747.15,43339.89
749.43,43267.88
751.7,43194.67
753.98,43128.23
756.25,43071.39
758.53,43003.67
760.8,42936.04
763.07,42872.02
765.34,42804.12
767.61,42744.18
769.88,42688.38
772.15,42637.07
774.42,42585.83
776.68,42536.11
778.95,42492.06
781.21,42451.54
783.48,42424.09
785.74,42404.84
788,42391.37
790.27,42384.75
792.53,42382.67
794.79,42384.22
797.05,42389.62
799.31,42395.95
801.56,42397.73
803.82,42400.93
806.08,42401.12
808.33,42395.36
810.59,42385.85
812.84,42371.5
815.1,42361.56
817.35,42348.15
819.6,42330.28
821.85,42316.58
824.1,42306.24
826.35,42290.54
828.6,42277.69
830.84,42266.54
833.09,42255.61
835.34,42248.33
837.58,42239.86
839.83,42222.36
842.07,42209.69
844.31,42199.37
846.55,42182.21
848.8,42157.18
851.04,42142.77
853.27,42133.06
855.51,42117.55
857.75,42101.49
859.99,42093.14
862.22,42079.98
864.46,42066.24
866.69,42053.91
868.93,42041.01
871.16,42032.58
873.39,42011.11
875.63,41978.92
877.86,41933.8
880.09,41883.83
882.31,41827.56
884.54,41771.24
886.77,41711.95
889,41650.44
891.22,41588.89
893.45,41526.51
895.67,41461.6
897.9,41403.05
900.12,41350.01
902.34,41301.57
904.56,41254.42
906.78,41211.2
909,41162.28
911.22,41109.43
913.44,41048.47
915.65,40984.39
917.87,40924.45
920.08,40867.28
922.3,40805.85
924.51,40744.45
926.73,40678.16
928.94,40614.21
931.15,40553.54
933.36,40493.23
935.57,40437.16
937.78,40386.24
939.99,40341.24
942.19,40298.19
944.4,40250.54
946.61,40207.93
948.81,40165.29
951.02,40115.6
953.22,40072.67
955.42,40028.93
957.62,39993.59
959.82,39961.11
962.02,39924.28
964.22,39900.28
966.42,39878.45
968.62,39862.24
970.82,39845.94
973.01,39829.22
975.21,39808.52
977.4,39790.92
979.6,39769.79
981.79,39756.79
983.98,39741.45
986.17,39729.3
988.36,39708.84
990.55,39688.74
992.74,39663.4
994.93,39638.9
997.12,39614.1
999.3,39596.86
1001.49,39587.64
1003.67,39588.43
1005.86,39593.55
1008.04,39599.44
1010.22,39602.14
1012.41,39614.06
1014.59,39628.8
1016.77,39651.46
1018.95,39679.7
1021.12,39713.02
1023.3,39753.53
1025.48,39788.74
1027.66,39825.17
1029.83,39855.68
1032.01,39885.15
1034.18,39912.2
1036.35,39946.07
1038.52,39980.15
1040.7,40012.89
1042.87,40047.72
1045.04,40081.96
1047.2,40105.96
1049.37,40123.2
1051.54,40133.54
1053.71,40141
1055.87,40142.74
1058.04,40141.39
1060.2,40140.67
1062.36,40140.15
1064.53,40135.76
1066.69,40126.24
1068.85,40118.8
1071.01,40097.9
1073.17,40079.46
1075.33,40056.92
1077.49,40040.24
1079.64,40020.55
1081.8,40000.05
1083.95,39987.4
1086.11,39964.11
1088.26,39940.72
1090.42,39911.89
1092.57,39881.54
1094.72,39846.2
1096.87,39808.08
1099.02,39771.03
1101.17,39726.87
1103.32,39672.23
1105.47,39612.14
1107.61,39542.68
1109.76,39468.04
1111.9,39385.5
1114.05,39292.23
1116.19,39196.76
1118.33,39101.81
1120.47,38999.61
1122.62,38891.17
1124.76,38774.58
1126.9,38655.19
1129.03,38533.86
1131.17,38404.44
1133.31,38271.72
1135.45,38134.07
1137.58,38003.5
1139.72,37872.91
1141.85,37738.15
1143.98,37606.4
1146.12,37480.1
1148.25,37353.79
1150.38,37228.73
1152.51,37101.11
1154.64,36978.18
1156.77,36854.59
1158.89,36733.67
1161.02,36620.96
1163.15,36512.44
1165.27,36401.81
1167.4,36291.96
1169.52,36181.95
1171.64,36069.19
1173.76,35968.54
1175.88,35864.75
1178.01,35761.09
1180.13,35665.17
1182.24,35564.07
1184.36,35464.41
1186.48,35366.81
1188.6,35274.75
1190.71,35191.74
1192.83,35113.67
1194.94,35044.46
1197.05,34976.89
1199.17,34913.36
1201.28,34864.46
1203.39,34817.82
1205.5,34774.07
1207.61,34738.22
1209.72,34714.64
1211.82,34694.26
1213.93,34680.47
1216.04,34673
1218.14,34671.02
1220.25,34675.68
1222.35,34688.33
1224.45,34696.11
1226.56,34703.17
1228.66,34715.62
1230.76,34728.8
1232.86,34736.42
1234.96,34748.28
1237.06,34752
1239.15,34762.37
1241.25,34767.31
1243.35,34777.06
1245.44,34787.7
1247.54,34789.95
1249.63,34789.68
1251.72,34788.4
1253.81,34785.42
1255.91,34785.51
1258,34780.08
1260.09,34776.61
1262.17,34772.71
1264.26,34771.77
1266.35,34763.24
1268.44,34758.19
1270.52,34755.33
1272.61,34752.64
1274.69,34746.77
1276.77,34742.72
1278.86,34732.18
1280.94,34720.84
1283.02,34711.72
1285.1,34703.63
1287.18,34692.46
1289.26,34681.38
1291.34,34672.54
1293.41,34663.95
1295.49,34647.55
1297.56,34634.09
1299.64,34615.51
1301.71,34590.23
1303.79,34569.66
1305.86,34541.79
1307.93,34509.27
1310,34486.23
1312.07,34462.84
1314.14,34437.07
1316.21,34407.64
1318.28,34385.01
1320.34,34356.12
1322.41,34333.7
1324.47,34309.57
1326.54,34285.72
1328.6,34257.22
1330.66,34229.53
1332.73,34202.43
1334.79,34177.89
1336.85,34150.85
1338.91,34120.67
1340.97,34095.29
1343.03,34066.8
1345.08,34028.66
1347.14,33991.1
1349.19,33953.48
1351.25,33910.41
1353.3,33871.43
1355.36,33828.59
1357.41,33777.43
1359.46,33725.26
1361.51,33665.66
1363.56,33606.69
1365.61,33541.01
1367.66,33477.16
1369.71,33406.21
1371.76,33329.67
1373.8,33252.54
1375.85,33167.32
1377.89,33078.58
1379.94,32990.63
1381.98,32897.2
1384.02,32806.89
1386.07,32728.04
1388.11,32629.33
1390.15,32533.91
1392.19,32442.8
1394.22,32341.82
1396.26,32247.26
1398.3,32156.32
1400.34,32065.37
1402.37,31975.84
1404.41,31891.24
1406.44,31809.2
1408.47,31731.85
1410.51,31658.28
1412.54,31586.75
1414.57,31518.07
1416.6,31456.44
1418.63,31391.38
1420.66,31329.79
1422.68,31269.34
1424.71,31197.67
1426.74,31125.8
1428.76,31051.64
1430.79,30975.17
1432.81,30894.33
1434.83,30807.06
1436.85,30715.84
1438.88,30623.07
1440.9,30530.28
1442.92,30430.96
1444.94,30331.37
1446.95,30231.43
1448.97,30131.2
1450.99,30024.28
1453,29918.36
1455.02,29819.11
1457.03,29715.53
1459.05,29614.36
1461.06,29512.82
1463.07,29413.24
1465.08,29313.59
1467.09,29212.72
1469.1,29102.17
1471.11,29004.83
1473.12,28909.25
1475.13,28812.05
1477.13,28720.09
1479.14,28625.42
1481.15,28524.37
1483.15,28430.35
1485.15,28329.15
1487.16,28229.15
1489.16,28124.17
1491.16,28013.8
1493.16,27903.8
1495.16,27791.05
1497.16,27674.83
1499.16,27553.58
1501.15,27437.51
1503.15,27323.78
1505.15,27209.59
1507.14,27102.28
1509.14,26998.37
1511.13,26899.34
1513.12,26804.41
1515.11,26713.63
1517.1,26634.37
1519.09,26553.75
1521.08,26478.63
1523.07,26404.67
1525.06,26339.82
1527.05,26277.65
1529.03,26211.41
1531.02,26152.4
1533.01,26094.86
1534.99,26038.85
1536.97,25981.16
1538.96,25927.41
1540.94,25875.83
1542.92,25827.92
1544.9,25774.59
1546.88,25725.57
1548.86,25676.38
1550.84,25625.7
1552.81,25579.77
1554.79,25533.72
1556.76,25488.61
1558.74,25441.87
1560.71,25400.98
1562.69,25358.37
1564.66,25316.88
1566.63,25274.6
1568.6,25228.89
1570.57,25186.89
1572.54,25144.5
1574.51,25096.13
1576.48,25049.08
1578.45,25003.39
1580.41,24956.43
1582.38,24901.13
1584.34,24845.72
1586.31,24796.14
1588.27,24744.87
1590.23,24695.5
1592.19,24649.11
1594.16,24599.59
1596.12,24553.74
1598.07,24501.11
1600.03,24454.33
1601.99,24404.95
1603.95,24357.11
1605.9,24308.59
1607.86,24257.41
1609.82,24212.63
1611.77,24162.18
1613.72,24110.77
1615.68,24062.12
1617.63,24011.26
1619.58,23957.11
1621.53,23903.14
1623.48,23843.5
1625.43,23791.24
1627.37,23736.06
1629.32,23676.67
1631.27,23621.41
1633.21,23564.37
1635.16,23504.98
1637.1,23444.01
1639.05,23388.13
1640.99,23327.2
1642.93,23269.51
1644.87,23211.06
1646.81,23157.87
1648.75,23101.57
1650.69,23042.06
1652.63,22987.18
1654.56,22930.7
1656.5,22872.02
1658.44,22816
1660.37,22758.76
1662.31,22711.87
1664.24,22661.4
1666.17,22600.59
1668.1,22543.27
1670.03,22486.17
1671.96,22426.71
1673.89,22369.8
1675.82,22308.03
1677.75,22252.27
1679.68,22192.33
1681.6,22135.5
1683.53,22079.94
1685.46,22027.41
1687.38,21975.06
1689.3,21923.78
1691.23,21874.43
1693.15,21827.43
1695.07,21773.7
1696.99,21723.84
1698.91,21676.3
1700.83,21626.85
1702.75,21577.79
1704.66,21524.33
1706.58,21469.46
1708.5,21417.93
1710.41,21362.05
1712.32,21308.28
1714.24,21255.08
1716.15,21202.46
1718.06,21144.79
1719.97,21089.71
1721.88,21037.89
1723.79,20981.79
1725.7,20926.2
1727.61,20878.09
1729.52,20834.66
1731.43,20786.47
1733.33,20740.72
1735.24,20697.23
1737.14,20651.56
1739.04,20605.19
1740.95,20554.57
1742.85,20506.19
1744.75,20464.05
1746.65,20415.69
1748.55,20365.25
1750.45,20318.41
1752.35,20265.12
1754.25,20214.76
1756.14,20164.6
1758.04,20114.13
1759.93,20060.7
1761.83,20008.98
1763.72,19953.22
1765.61,19897.54
1767.51,19847.14
1769.4,19793.62
1771.29,19745.22
1773.18,19703.44
1775.07,19654.98
1776.96,19607.06
1778.84,19561.76
1780.73,19520.48
1782.62,19478.52
1784.5,19436.85
1786.39,19397.01
1788.27,19358.94
1790.15,19314.32
1792.04,19273.24
1793.92,19234.27
1795.8,19189.34
1797.68,19146.42
1799.56,19096.53
1801.44,19050.19
1803.32,19000.35
1805.19,18946.28
1807.07,18892.07
1808.94,18838.52
1810.82,18786.78
1812.69,18740.44
1814.57,18690.46
1816.44,18645.85
1818.31,18600.02
1820.18,18557.77
1822.05,18514.5
1823.92,18478.98
1825.79,18440.05
1827.66,18398.28
1829.53,18357.51
1831.39,18316.09
1833.26,18277.7
1835.12,18236.44
1836.99,18192.43
1838.85,18150.48
1840.71,18107.83
1842.58,18068.76
1844.44,18021.94
1846.3,17975.76
1848.16,17922.66
1850.02,17869.84
1851.87,17823.22
1853.73,17777.42
1855.59,17726.55
1857.44,17675.72
1859.3,17629.03
1861.15,17588.53
1863.01,17540.79
1864.86,17495.38
1866.71,17452.85
1868.56,17408.02
1870.41,17360.93
1872.26,17319.89
1874.11,17277.15
1875.96,17237.72
1877.81,17191.69
1879.66,17151.37
1881.5,17108.08
1883.35,17064
1885.19,17022.68
1887.04,16980.23
1888.88,16932.29
1890.72,16886.82
1892.56,16839.72
1894.41,16796.37
1896.25,16748.97
1898.09,16704.4
1899.92,16657.32
1901.76,16614.1
1903.6,16571.36
1905.44,16531.55
1907.27,16490.73
1909.11,16448.58
1910.94,16407.3
1912.77,16370.02
1914.61,16326.75
1916.44,16284.3
1918.27,16239.72
1920.1,16200.19
1921.93,16157.91
1923.76,16117.47
1925.59,16076.76
1927.41,16036.64
1929.24,15992.99
1931.07,15950.54
1932.89,15910.14
1934.72,15868.54
1936.54,15822.99
1938.36,15780.49
1940.19,15738
1942.01,15694.59
1943.83,15655.63
1945.65,15616.27
1947.47,15576.37
1949.29,15537.33
1951.1,15496.87
1952.92,15460.9
1954.74,15423.42
1956.55,15387.36
1958.37,15352.69
1960.18,15314.38
1961.99,15273.89
1963.81,15236.83
1965.62,15197.92
1967.43,15152.87
1969.24,15107.84
1971.05,15062.37
1972.86,15017.59
1974.67,14972.43
1976.47,14930.2
1978.28,14883.79
1980.09,14837.23
1981.89,14792.62
1983.7,14747.99
1985.5,14709.36
1987.3,14669
1989.11,14631.41
1990.91,14594.38
1992.71,14559.46
1994.51,14522.28
1996.31,14489.98
1998.11,14455.54
1999.9,14417.5
2001.7,14376.63
2003.5,14339.82
2005.29,14300.92
2007.09,14258.98
2008.88,14214.8
2010.67,14172.01
2012.47,14130.9
2014.26,14090.05
2016.05,14050.48
2017.84,14005.28
2019.63,13959.58
2021.42,13919.33
2023.21,13875.9
2024.99,13838.09
2026.78,13801.31
2028.57,13763.09
2030.35,13725.05
2032.14,13685.86
2033.92,13648.18
2035.7,13613.67
2037.48,13574.52
2039.27,13538.13
2041.05,13505.92
2042.83,13466.46
2044.61,13430.37
2046.38,13390.76
2048.16,13350.65
2049.94,13309.5
2051.71,13269.71
2053.49,13234.85
2055.27,13195.83
2057.04,13157.28
2058.81,13114.94
2060.59,13073.61
2062.36,13032.97
2064.13,12993.92
2065.9,12956.17
2067.67,12915.53
2069.44,12875.13
2071.21,12834.99
2072.97,12799.76
2074.74,12763.8
2076.51,12723.46
2078.27,12686.28
2080.04,12649.18
2081.8,12613.92
2083.56,12575.32
2085.32,12538.33
2087.09,12500.85
2088.85,12459
2090.61,12419.25
2092.37,12381.42
2094.12,12338.89
2095.88,12304.28
2097.64,12262.13
2099.4,12222.5
2101.15,12182.22
2102.91,12143.96
2104.66,12108.42
2106.41,12070.38
2108.17,12031.57
2109.92,11998.57
2111.67,11959.92
2113.42,11926.13
2115.17,11895.83
2116.92,11861.14
2118.67,11830.1
2120.42,11798.2
2122.16,11759.24
2123.91,11723.91
2125.65,11683.37
2127.4,11648.02
2129.14,11608.33
2130.89,11574.33
2132.63,11536.07
2134.37,11496.9
2136.11,11455.27
2137.85,11414.76
2139.59,11372.02
2141.33,11333.52
2143.07,11298.52
2144.81,11261.39
2146.54,11227.12
2148.28,11194.2
2150.01,11162.68
2151.75,11129.02
2153.48,11097.54
2155.22,11068.63
2156.95,11038.35
2158.68,11005.53
2160.41,10978.28
2162.14,10947.1
2163.87,10919.7
2165.6,10891.89
2167.33,10856.98
2169.05,10825.83
2170.78,10791.61
2172.51,10757.46
2174.23,10721.63
2175.96,10684.35
2177.68,10651.91
2179.4,10615.93
2181.12,10576.24
2182.85,10543.49
2184.57,10507.45
2186.29,10471.64
2188.01,10435.43
2189.72,10400.82
2191.44,10367.59
2193.16,10338.87
2194.87,10309.17
2196.59,10281.37
2198.31,10250.85
2200.02,10221.17
2201.73,10188.86
2203.45,10159.81
2205.16,10129.73
2206.87,10100.65
2208.58,10070.09
2210.29,10043.16
2212,10010.46
2213.71,9979.1
2215.41,9946.63
2217.12,9909.54
2218.83,9876.98
2220.53,9840.67
2222.24,9808.18
2223.94,9773.2
2225.64,9735.96
2227.35,9702.6
2229.05,9672.59
2230.75,9637.28
2232.45,9608.28
2234.15,9577.5
2235.85,9545.98
2237.55,9516.48
2239.24,9486.64
2240.94,9455.51
2242.64,9426.58
2244.33,9395.97
2246.03,9363.69
2247.72,9331.94
2249.41,9306.44
2251.11,9275.14
2252.8,9241.88
2254.49,9211.5
2256.18,9178.63
2257.87,9149.31
2259.56,9118.24
2261.25,9085.03
2262.93,9053.1
2264.62,9022.78
2266.31,8992.46
2267.99,8963.82
2269.68,8936.3
2271.36,8906.67
2273.04,8879.35
2274.73,8851.03
2276.41,8824.18
2278.09,8796.13
2279.77,8772.42
2281.45,8746.95
2283.13,8718.21
2284.8,8690.56
2286.48,8666.91
2288.16,8640.11
2289.83,8617.96
2291.51,8591.84
2293.18,8564.94
2294.86,8541.19
2296.53,8513.08
2298.2,8484.59
2299.88,8460.72
2301.55,8430.65
2303.22,8399
2304.89,8374.11
2306.55,8348.21
2308.22,8323.5
2309.89,8300.8
2311.56,8272.71
2313.22,8251.12
2314.89,8228.56
2316.55,8202.56
2318.22,8176.59
2319.88,8152.33
2321.54,8132.96
2323.2,8107.4
2324.86,8084.02
2326.52,8061.98
2328.18,8037.93
2329.84,8014
2331.5,7990.54
2333.16,7964.83
2334.81,7939.5
2336.47,7911.86
2338.12,7885.18
2339.78,7862.65
2341.43,7838.37
2343.09,7814.32
2344.74,7792.68
2346.39,7774.89
2348.04,7750.15
2349.69,7727.78
2351.34,7704.56
2352.99,7681.26
2354.64,7658.59
2356.28,7639.3
2357.93,7614.8
2359.58,7594.98
2361.22,7577.46
2362.87,7556.94
2364.51,7536.07
2366.15,7516.8
2367.8,7492.88
2369.44,7473.26
2371.08,7451.72
2372.72,7422.89
2374.36,7396.99
2376,7371.96
2377.64,7350.94
2379.27,7328.24
2380.91,7302.35
2382.55,7277.69
2384.18,7255.7
2385.82,7232.77
2387.45,7209.72
2389.08,7184.59
2390.71,7161.55
2392.35,7139.41
2393.98,7115.85
2395.61,7096.67
2397.24,7078.54
2398.87,7053.26
2400.49,7034.18
2402.12,7010.66
2403.75,6988.78
2405.37,6967.11
2407,6946.22
2408.62,6920.76
2410.25,6898.11
2411.87,6873.8
2413.49,6842.5
2415.12,6815.27
2416.74,6788.72
2418.36,6765.48
2419.98,6740.78
2421.6,6720.17
2423.21,6694.55
2424.83,6670.33
2426.45,6645.31
2428.07,6617.76
2429.68,6592.99
2431.3,6568.52
2432.91,6543.46
2434.52,6521.12
2436.14,6498.72
2437.75,6477.95
2439.36,6457.95
2440.97,6437.93
2442.58,6415.84
2444.19,6390.32
2445.8,6370.28
2447.4,6347.66
2449.01,6325.37
2450.62,6304.54
2452.22,6282.04
2453.83,6260.92
2455.43,6238.83
2457.04,6221.15
2458.64,6202.29
2460.24,6181.43
2461.84,6157.93
2463.44,6132.63
2465.04,6117.07
2466.64,6093.14
2468.24,6073.46
2469.84,6051.31
2471.44,6028.65
2473.03,6006.15
2474.63,5991.72
2476.22,5971.8
2477.82,5952.66
2479.41,5936.47
2481,5919.2
2482.6,5899.79
2484.19,5884.84
2485.78,5866.7
2487.37,5844.44
2488.96,5824.28
2490.55,5809.48
2492.14,5791.87
2493.72,5772.8
2495.31,5755.72
2496.9,5739.74
2498.48,5718.93
2500.07,5703.09
2501.65,5685.4
2503.23,5666.48
2504.82,5658.86
2506.4,5639.91
2507.98,5623.85
2509.56,5604.97
2511.14,5589.39
2512.72,5574.37
2514.3,5559.63
2515.87,5537.89
2517.45,5520.39
2519.03,5505.21
2520.6,5489
2522.18,5469.15
2523.75,5451.07
2525.32,5433.38
2526.9,5415.76
2528.47,5401.11
2530.04,5384.05
2531.61,5369.76
2533.18,5353.64
2534.75,5339.98
2536.32,5326.57
2537.89,5309.52
2539.45,5288.37
2541.02,5271.4
2542.59,5256.94
2544.15,5241.09
2545.72,5224.69
2547.28,5212.58
2548.84,5195.04
2550.41,5180.7
2551.97,5163.39
2553.53,5147.38
2555.09,5130.16
2556.65,5117.18
2558.21,5104.5
2559.76,5088.42
2561.32,5073.49
2562.88,5058.38
2564.43,5041.05
2565.99,5027.15
2567.54,5013.2
2569.1,4988.14
2570.65,4972.59
2572.2,4959.11
2573.76,4946.46
2575.31,4930.99
2576.86,4921.15
2578.41,4905.78
2579.96,4893.23
2581.51,4876.67
2583.05,4862.98
2584.6,4850.81
2586.15,4836.2
2587.69,4822.39
2589.24,4810.59
2590.78,4796.28
2592.33,4783.45
2593.87,4769.36
2595.41,4753.15
2596.95,4741.32
2598.49,4728.12
2600.03,4715.32
2601.57,4701.72
2603.11,4690.24
2604.65,4681.12
2606.19,4663.89
2607.72,4651.58
2609.26,4637.88
2610.8,4624.93
2612.33,4609.96
2613.86,4603.15
2615.4,4591.48
2616.93,4578.55
2618.46,4564.64
2619.99,4549.54
2621.52,4537.99
2623.05,4525.76
2624.58,4508.97
2626.11,4499.78
2627.64,4487.33
2629.17,4471.89
2630.69,4460.89
2632.22,4448.61
2633.74,4434.76
2635.27,4417.15
2636.79,4404.73
2638.32,4392.56
2639.84,4375.41
2641.36,4365.2
2642.88,4357.03
2644.4,4347.1
2645.92,4335.4
2647.44,4321.06
2648.96,4315.53
2650.47,4302.27
2651.99,4286.76
2653.51,4272.49
2655.02,4257.47
2656.54,4244.42
2658.05,4233.88
2659.57,4217.92
2661.08,4202.55
2662.59,4193.8
2664.1,4184.53
2665.61,4173.77
2667.12,4161.02
2668.63,4149.41
2670.14,4138.02
2671.65,4130.85
2673.16,4119.03
2674.66,4109.84
2676.17,4092.78
2677.67,4081.76
2679.18,4071.16
2680.68,4062.03
2682.18,4051.24
2683.69,4038.41
2685.19,4029.73
2686.69,4023.19
2688.19,4010.1
2689.69,4001.19
2691.19,3991.85
2692.69,3978.85
2694.19,3970.82
2695.68,3964.2
2697.18,3955.83
2698.68,3947.72
2700.17,3937.33
2701.66,3926.16
2703.16,3913.97
2704.65,3902.11
2706.14,3891.42
2707.64,3878.31
2709.13,3870.93
2710.62,3856.69
2712.11,3849.51
2713.59,3844.55
2715.08,3837.47
2716.57,3829.07
2718.06,3819.25
2719.54,3809.33
2721.03,3804.86
2722.51,3801.94
2724,3786.68
2725.48,3775.74
2726.96,3767.07
2728.45,3755.5
2729.93,3749.49
2731.41,3736.45
2732.89,3724.05
2734.37,3714.05
2735.85,3706.43
2737.33,3695.32
2738.8,3686.07
2740.28,3678
2741.76,3669.11
2743.23,3656.02
2744.71,3647.51
2746.18,3636.52
2747.65,3626.72
2749.13,3617.13
2750.6,3605.51
2752.07,3595.23
2753.54,3585.42
2755.01,3573.76
2756.48,3563.19
2757.95,3556.83
2759.42,3547.13
2760.88,3535.61
2762.35,3529.28
2763.82,3523.55
2765.28,3514.6
2766.75,3505.45
2768.21,3500.37
2769.67,3490.14
2771.14,3480.77
2772.6,3471.17
2774.06,3461.77
2775.52,3455.25
2776.98,3451.58
2778.44,3444.2
2779.9,3437.69
2781.35,3428.81
2782.81,3419.33
2784.27,3413.46
2785.72,3405.17
2787.18,3400.11
2788.63,3396.77
2790.09,3390.68
2791.54,3389.83
2792.99,3385.18
2794.45,3379.66
2795.9,3374.76
2797.35,3370.11
2798.8,3367.92
2800.25,3362.09
2801.69,3356.8
2803.14,3358.07
2804.59,3355.54
2806.04,3349.11
2807.48,3343.71
2808.93,3342.36
2810.37,3342.59
2811.81,3343.43
2813.26,3343.31
2814.7,3342.88
2816.14,3344.07
2817.58,3345.57
2819.02,3345.59
2820.46,3352.89
2821.9,3356.25
2823.34,3355.72
2824.78,3360.67
2826.22,3370.22
2827.65,3376.5
2829.09,3382.89
2830.52,3389.22
2831.96,3397.98
2833.39,3406.51
2834.82,3415.24
2836.26,3419.59
2837.69,3430.53
2839.12,3442.85
2840.55,3453.48
2841.98,3466.54
2843.41,3482.94
2844.84,3500.98
2846.27,3514.24
2847.69,3531.8
2849.12,3551.85
2850.55,3571.38
2851.97,3594.44
2853.39,3617.27
2854.82,3641.84
2856.24,3668.62
2857.66,3695.73
2859.09,3725.45
2860.51,3752.75
2861.93,3780.5
2863.35,3809.69
2864.77,3842.63
2866.19,3877.18
2867.6,3911.65
2869.02,3945.6
2870.44,3980.39
2871.85,4018.23
2873.27,4071.15
2874.68,4104.73
2876.1,4144.27
2877.51,4180.95
2878.92,4213.19
2880.33,4247.04
2881.74,4286.27
2883.16,4323.67
2884.57,4356.54
2885.97,4393.87
2887.38,4430.28
2888.79,4468.37
2890.2,4501.3
2891.6,4536.86
2893.01,4573.94
2894.42,4610.43
2895.82,4645.89
2897.22,4680.54
2898.63,4714.34
2900.03,4744.46
2901.43,4773.93
2902.83,4800.26
2904.23,4828.65
2905.63,4855.67
2907.03,4881.38
2908.43,4902.63
2909.83,4922.12
2911.23,4943.23
2912.62,4958.37
2914.02,4973.77
2915.42,4983.51
2916.81,4994.28
2918.2,5006.3
2919.6,5013.43
2920.99,5016.23
2922.38,5017.54
2923.77,5017.8
2925.16,5013.37
2926.55,5006.79
2927.94,4996.7
2929.33,4982.09
2930.72,4953.85
2932.11,4937.19
2933.5,4914.88
2934.88,4893.1
2936.27,4870.65
2937.65,4846.72
2939.04,4818.5
2940.42,4786.82
2941.8,4755.93
2943.18,4718.89
2944.57,4685.37
2945.95,4645.85
2947.33,4607.39
2948.71,4565.78
2950.09,4518.55
2951.46,4473.77
2952.84,4427.2
2954.22,4378.03
2955.6,4329.74
2956.97,4279.96
2958.35,4232.33
2959.72,4184.47
2961.09,4129.17
2962.47,4075.56
2963.84,4019.16
2965.21,3963.33
2966.58,3906.74
2967.95,3847.37
2969.32,3791.43
2970.69,3735.06
2972.06,3678.24
2973.43,3622.02
2974.8,3559.07
2976.16,3498.89
2977.53,3443.15
2978.89,3392.25
2980.26,3337.2
2981.62,3285.26
2982.98,3231.77
2984.35,3179.92
2985.71,3128.02
2987.07,3075.5
2988.43,3028.89
2989.79,2977.85
2991.15,2930.58
2992.51,2882.79
2993.87,2835.23
2995.22,2787.87
2996.58,2743.69
2997.94,2701.29
2999.29,2658.34
3000.65,2616.39
3002,2576.98
3003.36,2539.96
3004.71,2503.59
3006.06,2472.63
3007.41,2437.98
3008.76,2405
3010.11,2371.54
3011.46,2340.31
3012.81,2307.79
3014.16,2275.8
3015.51,2244.97
3016.85,2221.91
3018.2,2192
3019.55,2164.25
3020.89,2139.41
3022.24,2114.86
3023.58,2092.07
3024.92,2070.26
3026.27,2047.64
3027.61,2027.59
3028.95,2005.64
3030.29,1987.84
3031.63,1975.53
3032.97,1956.65
3034.31,1936.49
3035.65,1915.95
3036.98,1895.85
3038.32,1880.62
3039.66,1868.39
3040.99,1856.37
3042.33,1841.93
3043.66,1825.93
3044.99,1817.17
3046.33,1803.98
3047.66,1793.02
3048.99,1785.15
3050.32,1778.89
3051.65,1771.18
3052.98,1762.19
3054.31,1754.68
3055.64,1747.27
3056.96,1739.82
3058.29,1731.33
3059.62,1722.01
3060.94,1712.66
3062.27,1707.8
3063.59,1698.67
3064.92,1690.83
3066.24,1684.93
3067.56,1681.8
3068.88,1674.13
3070.21,1662.76
3071.53,1653.09
3072.85,1647.8
3074.17,1641.44
3075.48,1636.73
3076.8,1633.67
3078.12,1627.97
3079.44,1619.24
3080.75,1614.91
3082.07,1609.33
3083.38,1603.96
3084.7,1603.19
3086.01,1592.8
3087.32,1588.89
3088.64,1584.53
3089.95,1581.89
3091.26,1576.81
3092.57,1568.8
3093.88,1565.18
3095.19,1557.58
3096.5,1554.15
3097.8,1552.28
3099.11,1545.92
3100.42,1541.89
3101.72,1537.21
3103.03,1529.97
3104.33,1523.44
3105.64,1515.58
3106.94,1510.16
3108.24,1506.63
3109.54,1500.38
3110.84,1500.4
3112.15,1498.63
3113.45,1494.77
3114.75,1489.41
3116.04,1483.67
3117.34,1479.43
3118.64,1477.34
3119.94,1471.57
3121.23,1462.99
3122.53,1458.1
3123.82,1458.66
3125.12,1457.73
3126.41,1455.04
3127.7,1452.69
3129,1446.82
3130.29,1441.29
3131.58,1439.85
3132.87,1437.75
3134.16,1432.05
3135.45,1429.53
3136.74,1426.76
3138.03,1419.88
3139.31,1418.78
3140.6,1417.89
3141.89,1413.39
3143.17,1410.24
3144.46,1411.85
3145.74,1412.72
3147.02,1403.63
3148.31,1403.79
3149.59,1397.04
3150.87,1390.04
3152.15,1385.54
3153.43,1384.41
3154.71,1380.6
3155.99,1380.83
3157.27,1379.26
3158.55,1375.07
3159.82,1372.66
3161.1,1370.85
3162.38,1367.63
3163.65,1361.36
3164.93,1354.82
3166.2,1349.62
3167.47,1348.58
3168.75,1349.85
3170.02,1349.28
3171.29,1346.76
3172.56,1343.31
3173.83,1344.06
3175.1,1344.11
3176.37,1344.44
3177.64,1341.25
3178.91,1338
3180.17,1333.77
3181.44,1332.13
3182.7,1328.42
3183.97,1324.44
3185.23,1318.68
3186.5,1319.26
3187.76,1314.33
3189.02,1309.82
3190.29,1304.83
3191.55,1217
3192.81,1374.67
3194.07,1490
3195.33,1337.33
3196.59,1330
3197.85,1234
3199.1,1281.33
3200.36,1315.67
3201.62,1407.33
3202.87,1354.33
3204.13,1290.67
3205.38,1243.67
3206.63,1266
3207.89,1236.33
3209.14,1261.33
3210.39,1162.33
3211.64,1364
3212.89,1177.33
3214.14,1199
3215.39,1119
