Wavenumber [cm-1],Raman Intensity
160.07,37621.33
162.55,38196
165.03,38589.67
167.5,38903.33
169.97,39259.67
172.45,39400.67
174.92,40019
177.39,40341.67
179.86,40670
182.33,41212.33
184.8,41519
187.27,41861
189.74,42119.67
192.2,42442.67
194.67,42734.67
197.14,42870
199.6,42921.67
202.06,43092
204.53,43093.67
206.99,43095.33
209.45,41895.43
211.91,42010.19
214.37,42104.36
216.83,42188.84
219.29,42263.41
221.74,42328.54
224.2,42385.06
226.65,42426.79
229.11,42462.48
231.56,42486.25
234.02,42492.59
236.47,42489.98
238.92,42479.58
241.37,42459.8
243.82,42429.66
246.27,42387.93
248.72,42342.21
251.16,42290.84
253.61,42235.2
256.06,42177.75
258.5,42115.77
260.95,42055.79
263.39,41999.36
265.83,41935.87
268.27,41878.77
270.71,41826.36
273.15,41775.17
275.59,41729.39
278.03,41691.02
280.47,41649.58
282.91,41607.07
285.34,41564.67
287.78,41513.5
290.21,41453.27
292.64,41389.94
295.08,41318.09
297.51,41247.68
299.94,41179.23
302.37,41109.33
304.8,41036.67
307.23,40966.17
309.66,40892.7
312.08,40814.28
314.51,40743.24
316.94,40675.64
319.36,40602.9
321.78,40533.57
324.21,40467.95
326.63,40399.52
329.05,40333.02
331.47,40271.38
333.89,40213.74
336.31,40164.04
338.73,40127.37
341.15,40109.72
343.56,40121.51
345.98,40173.06
348.39,40256.57
350.81,40379.59
353.22,40549.03
355.63,40781.35
358.04,41090.07
360.46,41454.26
362.87,41844.5
365.27,42234.58
367.68,42582.66
370.09,42834.1
372.5,42953.45
374.9,42988.43
377.31,42973.38
379.71,42936.5
382.12,42886.11
384.52,42825.72
386.92,42776.29
389.32,42722.85
391.72,42670.18
394.12,42622.5
396.52,42574.58
398.92,42525.62
401.32,42478.37
403.71,42429.28
406.11,42382.91
408.5,42338.17
410.9,42293.81
413.29,42248.8
415.68,42193.01
418.07,42144.2
420.46,42093.57
422.85,42039.09
425.24,41982.39
427.63,41928.99
430.02,41868.77
432.4,41808.37
434.79,41738.98
437.17,41654.09
439.56,41556.2
441.94,41429.61
444.32,41265.53
446.71,41066.57
449.09,40832.79
451.47,40550.24
453.85,40202.24
456.22,39784.33
458.6,39311.03
460.98,38808.67
463.35,38312.33
465.73,37850.97
468.1,37490.47
470.48,37268.2
472.85,37133.67
475.22,37062.45
477.59,37032.73
479.96,37018.8
482.33,37016.01
484.7,36998.47
487.07,36983.74
489.44,36937.47
491.8,36880.7
494.17,36815.56
496.53,36749.09
498.9,36682.41
501.26,36609.67
503.62,36539.34
505.98,36467.06
508.34,36397.59
510.7,36322.12
513.06,36254.6
515.42,36185.91
517.78,36113.87
520.14,36047.2
522.49,35979.94
524.85,35908.59
527.2,35844.55
529.55,35776.41
531.91,35709.98
534.26,35643.85
536.61,35574.54
538.96,35501.37
541.31,35427.86
543.66,35359.41
546,35285.63
548.35,35218.88
550.7,35153.81
553.04,35078.17
555.39,35005.89
557.73,34933.99
560.07,34857.36
562.41,34784.7
564.76,34707.38
567.1,34622.8
569.44,34529.11
571.77,34416.8
574.11,34287.55
576.45,34158.79
578.79,34038.52
581.12,33942.25
583.46,33871.85
585.79,33851.45
588.12,33854.6
590.46,33870.78
592.79,33884.89
595.12,33879.43
597.45,33853.39
599.78,33806.18
602.1,33749.12
604.43,33687.7
606.76,33629.29
609.08,33572.14
611.41,33518.98
613.73,33473.89
616.06,33428.72
618.38,33385.01
620.7,33335.64
623.02,33277.41
625.34,33218.1
627.66,33167.85
629.98,33135.94
632.3,33126.73
634.61,33160.43
636.93,33232.71
639.25,33323.91
641.56,33429.97
643.87,33518.64
646.19,33577.53
648.5,33597.54
650.81,33576.96
653.12,33537.33
655.43,33495.35
657.74,33444.22
660.05,33385.72
662.35,33323.33
664.66,33259.5
666.97,33196.28
669.27,33127.74
671.57,33060.74
673.88,32979.51
676.18,32879.38
678.48,32763.75
680.78,32632.9
683.08,32486.01
685.38,32335.24
687.68,32188.63
689.98,32058.16
692.27,31958.2
694.57,31873.91
696.86,31803.06
699.16,31736.93
701.45,31673.11
703.74,31607.63
706.04,31538.98
708.33,31464.8
710.62,31387.28
712.91,31315.33
715.2,31243.6
717.48,31182.74
719.77,31121.94
722.06,31047.88
724.34,30959.29
726.63,30855.79
728.91,30703.88
731.19,30513.54
733.48,30307.05
735.76,30087.28
738.04,29879.6
740.32,29703.53
742.6,29575.17
744.87,29481.59
747.15,29412.07
749.43,29344.21
751.7,29281.67
753.98,29224.16
756.25,29177.93
758.53,29120.18
760.8,29064.51
763.07,29008.91
765.34,28950.4
767.61,28897.85
769.88,28846.74
772.15,28796.13
774.42,28746.2
776.68,28697.35
778.95,28652.3
781.21,28603.54
783.48,28563.19
785.74,28524.8
788,28486.78
790.27,28452.26
792.53,28422.74
794.79,28392.95
797.05,28365.43
799.31,28334.85
801.56,28303.64
803.82,28279.23
806.08,28249.12
808.33,28223.92
810.59,28196.56
812.84,28175.24
815.1,28163.83
817.35,28157.07
819.6,28144.7
821.85,28140.09
824.1,28137.29
826.35,28123.45
828.6,28105.5
830.84,28079.67
833.09,28050.37
835.34,28018.12
837.58,27984.5
839.83,27944.82
842.07,27907.7
844.31,27876.12
846.55,27839.08
848.8,27790.26
851.04,27757.21
853.27,27721.51
855.51,27686.35
857.75,27648.39
859.99,27621.41
862.22,27589.24
864.46,27555.39
866.69,27519.11
868.93,27487.3
871.16,27456
873.39,27422.93
875.63,27384.59
877.86,27342.01
880.09,27300.69
882.31,27255.33
884.54,27210.25
886.77,27162.04
889,27111.15
891.22,27062.81
893.45,27013.45
895.67,26963.19
897.9,26917.63
900.12,26868.14
902.34,26817.59
904.56,26763.19
906.78,26703.66
909,26637.04
911.22,26567.36
913.44,26496.79
915.65,26424.74
917.87,26362.17
920.08,26308.75
922.3,26262.5
924.51,26219.24
926.73,26179.48
928.94,26144.37
931.15,26113.71
933.36,26089.17
935.57,26072.83
937.78,26066.76
939.99,26067.24
942.19,26067.78
944.4,26068.75
946.61,26070.84
948.81,26076.51
951.02,26077.45
953.22,26095.44
955.42,26117.06
957.62,26142.32
959.82,26155.64
962.02,26150.93
964.22,26135.76
966.42,26111.72
968.62,26079.13
970.82,26044.99
973.01,26008.93
975.21,25973.11
977.4,25942.33
979.6,25912.48
981.79,25893.91
983.98,25874.35
986.17,25853.24
988.36,25825.2
990.55,25800.06
992.74,25766.38
994.93,25730.75
997.12,25691.71
999.3,25648.36
1001.49,25606.59
1003.67,25563.1
1005.86,25523.4
1008.04,25482.74
1010.22,25442.24
1012.41,25405.8
1014.59,25372.94
1016.77,25340.32
1018.95,25310.4
1021.12,25281.24
1023.3,25253.97
1025.48,25212.65
1027.66,25168.04
1029.83,25115.86
1032.01,25062.54
1034.18,25006.91
1036.35,24954.52
1038.52,24897.45
1040.7,24832.52
1042.87,24759.46
1045.04,24676.77
1047.2,24593.89
1049.37,24513.76
1051.54,24444.05
1053.71,24391.2
1055.87,24344.89
1058.04,24304.63
1060.2,24265.76
1062.36,24228.85
1064.53,24186.09
1066.69,24140.9
1068.85,24095.06
1071.01,24031.85
1073.17,23972.75
1075.33,23912.11
1077.49,23854.6
1079.64,23793.12
1081.8,23738.88
1083.95,23690.67
1086.11,23640.23
1088.26,23592.32
1090.42,23543.06
1092.57,23497.43
1094.72,23450.47
1096.87,23401.43
1099.02,23353.63
1101.17,23305.48
1103.32,23248.38
1105.47,23197.87
1107.61,23142.5
1109.76,23087.02
1111.9,23030.92
1114.05,22972.67
1116.19,22913.5
1118.33,22856.33
1120.47,22799.02
1122.62,22736.75
1124.76,22677.18
1126.9,22619.43
1129.03,22563.44
1131.17,22508.07
1133.31,22462.76
1135.45,22415.57
1137.58,22378.85
1139.72,22346.06
1141.85,22311.9
1143.98,22281.3
1146.12,22256.05
1148.25,22230.66
1150.38,22208.37
1152.51,22185.14
1154.64,22164.73
1156.77,22145.05
1158.89,22131.06
1161.02,22116.76
1163.15,22102.93
1165.27,22087.35
1167.4,22072.74
1169.52,22054.49
1171.64,22037.44
1173.76,22027.22
1175.88,22018.54
1178.01,22005.54
1180.13,21999.33
1182.24,21989.78
1184.36,21980.77
1186.48,21965.3
1188.6,21954.63
1190.71,21950.46
1192.83,21941.65
1194.94,21939.8
1197.05,21936.42
1199.17,21933.93
1201.28,21939.33
1203.39,21949.31
1205.5,21965.97
1207.61,21987.98
1209.72,22022.41
1211.82,22059.03
1213.93,22105.61
1216.04,22155.23
1218.14,22207.37
1220.25,22259.73
1222.35,22316.46
1224.45,22365.67
1226.56,22410
1228.66,22450.89
1230.76,22486.93
1232.86,22511.56
1234.96,22535.77
1237.06,22549.74
1239.15,22562.11
1241.25,22573
1243.35,22579.67
1245.44,22588.85
1247.54,22597.8
1249.63,22609.38
1251.72,22627.75
1253.81,22649.68
1255.91,22677.65
1258,22705.81
1260.09,22734.83
1262.17,22761.96
1264.26,22788.93
1266.35,22804.34
1268.44,22815.41
1270.52,22823.8
1272.61,22831.26
1274.69,22825.79
1276.77,22820.81
1278.86,22807.69
1280.94,22786.41
1283.02,22760.45
1285.1,22728.8
1287.18,22690.67
1289.26,22653.06
1291.34,22621.28
1293.41,22609.39
1295.49,22647.33
1297.56,22754.78
1299.64,22896.82
1301.71,23046.9
1303.79,23187.8
1305.86,23284.54
1307.93,23325.59
1310,23326.7
1312.07,23291.59
1314.14,23236.8
1316.21,23175.93
1318.28,23117.05
1320.34,23049.06
1322.41,22987.3
1324.47,22924.81
1326.54,22859.84
1328.6,22796.05
1330.66,22728.46
1332.73,22657.41
1334.79,22583.85
1336.85,22507.73
1338.91,22424.72
1340.97,22343.2
1343.03,22258.18
1345.08,22170.07
1347.14,22085.11
1349.19,22007.41
1351.25,21936.19
1353.3,21872.68
1355.36,21815.81
1357.41,21758.8
1359.46,21703.89
1361.51,21650.8
1363.56,21600.73
1365.61,21553.5
1367.66,21514.13
1369.71,21474.61
1371.76,21435.5
1373.8,21395
1375.85,21343.64
1377.89,21271.22
1379.94,21146.89
1381.98,20952.75
1384.02,20723.02
1386.07,20502.25
1388.11,20286.89
1390.15,20125.07
1392.19,20027.26
1394.22,19983.73
1396.26,19989.87
1398.3,20023.02
1400.34,20063.72
1402.37,20109.93
1404.41,20162.46
1406.44,20212.56
1408.47,20259.72
1410.51,20304.05
1412.54,20342.33
1414.57,20378.24
1416.6,20411.27
1418.63,20433.24
1420.66,20446.88
1422.68,20459.07
1424.71,20460.96
1426.74,20456.73
1428.76,20449.62
1430.79,20440.52
1432.81,20425.33
1434.83,20402.11
1436.85,20377.77
1438.88,20348.1
1440.9,20320.2
1442.92,20290.83
1444.94,20255.07
1446.95,20220.47
1448.97,20184.54
1450.99,20141.33
1453,20097.04
1455.02,20058.03
1457.03,20011.53
1459.05,19962.88
1461.06,19909.08
1463.07,19851.29
1465.08,19784.82
1467.09,19712.55
1469.1,19619.34
1471.11,19523.47
1473.12,19417.83
1475.13,19301.02
1477.13,19178.04
1479.14,19044.14
1481.15,18906.5
1483.15,18777.99
1485.15,18655.04
1487.16,18549.35
1489.16,18466.27
1491.16,18445.43
1493.16,18495.57
1495.16,18582.33
1497.16,18674.82
1499.16,18756.96
1501.15,18819.24
1503.15,18857.8
1505.15,18866.52
1507.14,18853.85
1509.14,18830.73
1511.13,18798.5
1513.12,18762.98
1515.11,18726.23
1517.1,18693.33
1519.09,18657.58
1521.08,18621.19
1523.07,18582.66
1525.06,18546.77
1527.05,18515.67
1529.03,18479.24
1531.02,18448.7
1533.01,18417.78
1534.99,18389.01
1536.97,18360.35
1538.96,18337.49
1540.94,18315.54
1542.92,18293.39
1544.9,18265.2
1546.88,18243.89
1548.86,18218.46
1550.84,18195.74
1552.81,18175.52
1554.79,18157.67
1556.76,18143.45
1558.74,18130.33
1560.71,18125.07
1562.69,18112.66
1564.66,18100.01
1566.63,18078.19
1568.6,18036.26
1570.57,17976.77
1572.54,17856.37
1574.51,17669.67
1576.48,17452.61
1578.45,17234.76
1580.41,17028.06
1582.38,16849.84
1584.34,16706.59
1586.31,16600.55
1588.27,16522.06
1590.23,16461.72
1592.19,16420.09
1594.16,16383.54
1596.12,16359.56
1598.07,16339.08
1600.03,16332.69
1601.99,16340.68
1603.95,16363.84
1605.9,16403.55
1607.86,16455.9
1609.82,16526.59
1611.77,16608.59
1613.72,16698.41
1615.68,16796.2
1617.63,16882.5
1619.58,16956.22
1621.53,17016.87
1623.48,17057.91
1625.43,17087.53
1627.37,17099.15
1629.32,17098.14
1631.27,17085.14
1633.21,17064.02
1635.16,17030.51
1637.1,16989.93
1639.05,16943.39
1640.99,16888.93
1642.93,16838.69
1644.87,16784.8
1646.81,16736.53
1648.75,16692.75
1650.69,16647.02
1652.63,16609.04
1654.56,16569.72
1656.5,16528.58
1658.44,16486.71
1660.37,16445.75
1662.31,16410.84
1664.24,16372.98
1666.17,16329.92
1668.1,16285.65
1670.03,16238.11
1671.96,16185.42
1673.89,16131.83
1675.82,16069.66
1677.75,16005.85
1679.68,15934.27
1681.6,15847.44
1683.53,15750.87
1685.46,15643.92
1687.38,15521.15
1689.3,15388.11
1691.23,15241.96
1693.15,15092.98
1695.07,14932.5
1696.99,14784.03
1698.91,14646.19
1700.83,14526
1702.75,14421.83
1704.66,14334.26
1706.58,14257.67
1708.5,14194.41
1710.41,14135.99
1712.32,14089.22
1714.24,14043.96
1716.15,13997.39
1718.06,13952.07
1719.97,13908.44
1721.88,13865.89
1723.79,13822.5
1725.7,13778.42
1727.61,13737.72
1729.52,13699.28
1731.43,13662.34
1733.33,13625.13
1735.24,13592.35
1737.14,13558.84
1739.04,13529.08
1740.95,13494.02
1742.85,13458.38
1744.75,13427.22
1746.65,13394.54
1748.55,13361.06
1750.45,13331.12
1752.35,13295.34
1754.25,13259.25
1756.14,13228.51
1758.04,13189.5
1759.93,13152.22
1761.83,13115.48
1763.72,13073.42
1765.61,13030.12
1767.51,12988.5
1769.4,12938.95
1771.29,12893
1773.18,12849.06
1775.07,12797.93
1776.96,12747.66
1778.84,12694.95
1780.73,12644.8
1782.62,12594.5
1784.5,12547.11
1786.39,12503.14
1788.27,12462.15
1790.15,12415.14
1792.04,12378.25
1793.92,12345.24
1795.8,12306
1797.68,12271.56
1799.56,12233.07
1801.44,12197.84
1803.32,12162.18
1805.19,12124.59
1807.07,12085.43
1808.94,12042.89
1810.82,12000.26
1812.69,11958.98
1814.57,11916.72
1816.44,11877.13
1818.31,11835.8
1820.18,11800.72
1822.05,11761.85
1823.92,11729.88
1825.79,11697.27
1827.66,11660.55
1829.53,11628.53
1831.39,11597.71
1833.26,11568.25
1835.12,11538.4
1836.99,11508.11
1838.85,11478.28
1840.71,11447.12
1842.58,11420.5
1844.44,11390.3
1846.3,11361.41
1848.16,11326.21
1850.02,11291.3
1851.87,11258.54
1853.73,11227.55
1855.59,11191.88
1857.44,11157.59
1859.3,11123.49
1861.15,11093.85
1863.01,11057.05
1864.86,11020.24
1866.71,10989.03
1868.56,10953.09
1870.41,10916.48
1872.26,10886.43
1874.11,10856.35
1875.96,10831.04
1877.81,10798.63
1879.66,10768.84
1881.5,10738.95
1883.35,10709.18
1885.19,10680.99
1887.04,10652.85
1888.88,10620.7
1890.72,10586.45
1892.56,10551.55
1894.41,10521.32
1896.25,10486.07
1898.09,10452.44
1899.92,10417.59
1901.76,10385.85
1903.6,10355.02
1905.44,10324.46
1907.27,10293.73
1909.11,10261.6
1910.94,10231.83
1912.77,10204.2
1914.61,10170.55
1916.44,10141.12
1918.27,10109.08
1920.1,10077.16
1921.93,10046.95
1923.76,10014.76
1925.59,9982.75
1927.41,9952.93
1929.24,9919.15
1931.07,9887.8
1932.89,9856.11
1934.72,9824.02
1936.54,9788.11
1938.36,9756.22
1940.19,9725.98
1942.01,9692.15
1943.83,9662.72
1945.65,9633.86
1947.47,9604.95
1949.29,9574.58
1951.1,9541.41
1952.92,9512.88
1954.74,9484.47
1956.55,9454.73
1958.37,9430.54
1960.18,9400.36
1961.99,9369.65
1963.81,9342.58
1965.62,9318.51
1967.43,9287.41
1969.24,9257.67
1971.05,9227.93
1972.86,9197.52
1974.67,9166.27
1976.47,9136.18
1978.28,9102.03
1980.09,9066.12
1981.89,9034.49
1983.7,8999.35
1985.5,8969.2
1987.3,8938.37
1989.11,8910.2
1990.91,8881.53
1992.71,8854.89
1994.51,8829.21
1996.31,8805.5
1998.11,8781.02
1999.9,8757.18
2001.7,8731.46
2003.5,8708.88
2005.29,8683.78
2007.09,8657.08
2008.88,8629.07
2010.67,8604.79
2012.47,8579.8
2014.26,8555.13
2016.05,8530.02
2017.84,8498.76
2019.63,8467.2
2021.42,8437.02
2023.21,8406.36
2024.99,8381.2
2026.78,8354.4
2028.57,8328.92
2030.35,8303.31
2032.14,8272.49
2033.92,8246.62
2035.7,8223.78
2037.48,8197.97
2039.27,8174.15
2041.05,8152.85
2042.83,8126.76
2044.61,8102.2
2046.38,8077.23
2048.16,8053.49
2049.94,8029.54
2051.71,8004.28
2053.49,7985.28
2055.27,7961.71
2057.04,7938.76
2058.81,7913.25
2060.59,7887.1
2062.36,7864.94
2064.13,7839.53
2065.9,7815.31
2067.67,7788.96
2069.44,7761.59
2071.21,7738.01
2072.97,7716.62
2074.74,7694.77
2076.51,7669.01
2078.27,7645.93
2080.04,7626.2
2081.8,7606.72
2083.56,7580.42
2085.32,7556.8
2087.09,7533.24
2088.85,7507.06
2090.61,7482.66
2092.37,7459.89
2094.12,7436.23
2095.88,7416.51
2097.64,7390.5
2099.4,7367.28
2101.15,7340.6
2102.91,7316.89
2104.66,7295
2106.41,7271.76
2108.17,7246.6
2109.92,7225.91
2111.67,7199.72
2113.42,7180.53
2115.17,7163.07
2116.92,7141.17
2118.67,7124.59
2120.42,7103.83
2122.16,7078.55
2123.91,7058.63
2125.65,7032.93
2127.4,7011.76
2129.14,6986.7
2130.89,6966.17
2132.63,6941.88
2134.37,6914.45
2136.11,6890.02
2137.85,6864.59
2139.59,6837.03
2141.33,6815.98
2143.07,6792.15
2144.81,6767.38
2146.54,6745.82
2148.28,6725.53
2150.01,6704.44
2151.75,6680.46
2153.48,6659.25
2155.22,6641.33
2156.95,6622.32
2158.68,6602.93
2160.41,6587.39
2162.14,6569.77
2163.87,6552.81
2165.6,6536.76
2167.33,6514.26
2169.05,6495.48
2170.78,6474.68
2172.51,6455.35
2174.23,6432.52
2175.96,6410.54
2177.68,6391.11
2179.4,6369.96
2181.12,6345.51
2182.85,6325.38
2184.57,6301.15
2186.29,6276.59
2188.01,6254.02
2189.72,6230.46
2191.44,6208.3
2193.16,6189.85
2194.87,6171.1
2196.59,6155.32
2198.31,6134.77
2200.02,6117.77
2201.73,6097.01
2203.45,6080.15
2205.16,6061.97
2206.87,6043.83
2208.58,6025.15
2210.29,6009.86
2212,5986.45
2213.71,5967.66
2215.41,5947.85
2217.12,5922.89
2218.83,5901.37
2220.53,5879.69
2222.24,5859.01
2223.94,5835.66
2225.64,5813.02
2227.35,5791.75
2229.05,5772.33
2230.75,5748.37
2232.45,5728.87
2234.15,5710.34
2235.85,5688.37
2237.55,5670.52
2239.24,5650.83
2240.94,5630.81
2242.64,5612.88
2244.33,5594.02
2246.03,5573.15
2247.72,5551.87
2249.41,5535.67
2251.11,5514.93
2252.8,5494.82
2254.49,5475.21
2256.18,5455.15
2257.87,5436.21
2259.56,5416.76
2261.25,5394.46
2262.93,5373.72
2264.62,5355.39
2266.31,5335.23
2267.99,5318.43
2269.68,5300.32
2271.36,5281.21
2273.04,5263.25
2274.73,5246.13
2276.41,5227.52
2278.09,5210.08
2279.77,5196.14
2281.45,5180.88
2283.13,5163.58
2284.8,5145.91
2286.48,5131.52
2288.16,5115.49
2289.83,5102.65
2291.51,5086.69
2293.18,5071.12
2294.86,5056.05
2296.53,5039.76
2298.2,5021.56
2299.88,5007.42
2301.55,4988.5
2303.22,4967.5
2304.89,4951.76
2306.55,4935.64
2308.22,4920.3
2309.89,4907.54
2311.56,4888.4
2313.22,4875.82
2314.89,4861.98
2316.55,4847.5
2318.22,4831.94
2319.88,4816.76
2321.54,4805.89
2323.2,4791.45
2324.86,4777.04
2326.52,4764.1
2328.18,4748.95
2329.84,4736.72
2331.5,4722.75
2333.16,4707.26
2334.81,4691.72
2336.47,4673.7
2338.12,4657.56
2339.78,4645.12
2341.43,4630.32
2343.09,4615.22
2344.74,4603.29
2346.39,4595.58
2348.04,4578.98
2349.69,4566.33
2351.34,4553.49
2352.99,4539.42
2354.64,4526.41
2356.28,4515.41
2357.93,4500.34
2359.58,4489.54
2361.22,4480.51
2362.87,4468.85
2364.51,4455.05
2366.15,4445.34
2367.8,4432.32
2369.44,4422.01
2371.08,4409.85
2372.72,4392.32
2374.36,4376.64
2376,4361.9
2377.64,4349.18
2379.27,4335.07
2380.91,4319.47
2382.55,4305.36
2384.18,4292.04
2385.82,4277.89
2387.45,4264.94
2389.08,4249.72
2390.71,4237.24
2392.35,4224.56
2393.98,4210.33
2395.61,4200.61
2397.24,4191.48
2398.87,4177.25
2400.49,4168.04
2402.12,4155.59
2403.75,4144.9
2405.37,4133.26
2407,4122.09
2408.62,4107.97
2410.25,4096.34
2411.87,4082.21
2413.49,4061.01
2415.12,4044.79
2416.74,4028.32
2418.36,4012.23
2419.98,3998.4
2421.6,3988.07
2423.21,3974.59
2424.83,3960.07
2426.45,3944.97
2428.07,3928.81
2429.68,3913.21
2431.3,3899.9
2432.91,3884.1
2434.52,3869.41
2436.14,3856.63
2437.75,3846.38
2439.36,3838.15
2440.97,3831.03
2442.58,3823.07
2444.19,3814.32
2445.8,3814.33
2447.4,3813.41
2449.01,3814.08
2450.62,3816.64
2452.22,3818.58
2453.83,3819.53
2455.43,3817.83
2457.04,3818.36
2458.64,3816.78
2460.24,3812.2
2461.84,3802.92
2463.44,3791.56
2465.04,3786.14
2466.64,3772.11
2468.24,3761.98
2469.84,3747.76
2471.44,3734.29
2473.03,3721.12
2474.63,3715.03
2476.22,3703.61
2477.82,3693.37
2479.41,3684.63
2481,3675.13
2482.6,3664.02
2484.19,3657.94
2485.78,3647.78
2487.37,3633.5
2488.96,3619.15
2490.55,3611.88
2492.14,3604.37
2493.72,3592.54
2495.31,3583.99
2496.9,3575.76
2498.48,3563.07
2500.07,3556.36
2501.65,3546.41
2503.23,3535.02
2504.82,3533.26
2506.4,3517.2
2507.98,3503.74
2509.56,3485.91
2511.14,3467.7
2512.72,3447.74
2514.3,3427.31
2515.87,3399.39
2517.45,3375.23
2519.03,3354.76
2520.6,3335.43
2522.18,3312.74
2523.75,3293.9
2525.32,3277.12
2526.9,3262.06
2528.47,3249.89
2530.04,3238.77
2531.61,3228.15
2533.18,3217.8
2534.75,3210.38
2536.32,3202.41
2537.89,3192.52
2539.45,3178.87
2541.02,3168.78
2542.59,3161.7
2544.15,3153.33
2545.72,3145.6
2547.28,3141.05
2548.84,3131.08
2550.41,3122.46
2551.97,3112.45
2553.53,3102.98
2555.09,3093.44
2556.65,3086.46
2558.21,3080.99
2559.76,3072.85
2561.32,3064.81
2562.88,3058.2
2564.43,3047.96
2565.99,3041.5
2567.54,3034.33
2569.1,3015.75
2570.65,3008.88
2572.2,3002.04
2573.76,2995.84
2575.31,2988.4
2576.86,2984.99
2578.41,2975.55
2579.96,2970.2
2581.51,2960.4
2583.05,2952.25
2584.6,2946.14
2586.15,2937.83
2587.69,2930.23
2589.24,2924.52
2590.78,2915.81
2592.33,2908.98
2593.87,2901.35
2595.41,2892.95
2596.95,2887.43
2598.49,2880.65
2600.03,2875.33
2601.57,2867.03
2603.11,2860.98
2604.65,2857.68
2606.19,2846.11
2607.72,2840.76
2609.26,2832.41
2610.8,2824.82
2612.33,2816.22
2613.86,2816.36
2615.4,2810.7
2616.93,2804.9
2618.46,2796.78
2619.99,2787.16
2621.52,2781.44
2623.05,2775.14
2624.58,2764.43
2626.11,2759.66
2627.64,2752.86
2629.17,2743.49
2630.69,2738.24
2632.22,2732.09
2633.74,2723.83
2635.27,2712.05
2636.79,2705.94
2638.32,2699.16
2639.84,2687.83
2641.36,2683.63
2642.88,2680.12
2644.4,2676.3
2645.92,2670.8
2647.44,2662.72
2648.96,2662.38
2650.47,2655.56
2651.99,2647.42
2653.51,2640.99
2655.02,2632.82
2656.54,2625.72
2658.05,2621.08
2659.57,2610.46
2661.08,2601.37
2662.59,2596.54
2664.1,2594.52
2665.61,2590.37
2667.12,2583.66
2668.63,2578.63
2670.14,2574.12
2671.65,2572.72
2673.16,2567.17
2674.66,2564.63
2676.17,2555.27
2677.67,2550.84
2679.18,2547.67
2680.68,2545.28
2682.18,2541.29
2683.69,2534.58
2685.19,2532.63
2686.69,2533.77
2688.19,2528.45
2689.69,2526.89
2691.19,2523.89
2692.69,2518.23
2694.19,2517.26
2695.68,2516.83
2697.18,2516.03
2698.68,2514.39
2700.17,2510.08
2701.66,2504.64
2703.16,2498.82
2704.65,2492.62
2706.14,2486.41
2707.64,2478.31
2709.13,2473.62
2710.62,2463.89
2712.11,2459.56
2713.59,2455.82
2715.08,2451.1
2716.57,2444.1
2718.06,2436.02
2719.54,2427.63
2721.03,2424.98
2722.51,2423.86
2724,2411.68
2725.48,2400.75
2726.96,2393.14
2728.45,2382.36
2729.93,2377.31
2731.41,2362.96
2732.89,2350.31
2734.37,2341.77
2735.85,2332.92
2737.33,2320.89
2738.8,2312.02
2740.28,2303.02
2741.76,2293.72
2743.23,2280.2
2744.71,2272.22
2746.18,2260.89
2747.65,2250.23
2749.13,2239.9
2750.6,2228.67
2752.07,2218.98
2753.54,2209.36
2755.01,2196.94
2756.48,2187.37
2757.95,2180.93
2759.42,2171.35
2760.88,2162.13
2762.35,2157.42
2763.82,2152.08
2765.28,2146.11
2766.75,2139.63
2768.21,2137.73
2769.67,2132.93
2771.14,2126.64
2772.6,2120.94
2774.06,2116.05
2775.52,2113.78
2776.98,2115.82
2778.44,2113.49
2779.9,2112.83
2781.35,2111.07
2782.81,2107.63
2784.27,2108.63
2785.72,2109.35
2787.18,2111.42
2788.63,2116.37
2790.09,2119.07
2791.54,2128.1
2792.99,2134.03
2794.45,2139.76
2795.9,2147.39
2797.35,2156.62
2798.8,2168.15
2800.25,2178.04
2801.69,2191.09
2803.14,2210.9
2804.59,2229.85
2806.04,2247.48
2807.48,2268.38
2808.93,2297.41
2810.37,2331.2
2811.81,2370.03
2813.26,2413.5
2814.7,2462.46
2816.14,2516.31
2817.58,2577.07
2819.02,2639.68
2820.46,2712.32
2821.9,2784.75
2823.34,2856.61
2824.78,2932.86
2826.22,3017.45
2827.65,3100.11
2829.09,3186.4
2830.52,3276.52
2831.96,3374.22
2833.39,3479.76
2834.82,3593.2
2836.26,3720.35
2837.69,3880.54
2839.12,4078.26
2840.55,4313.53
2841.98,4588.9
2843.41,4895.79
2844.84,5225.45
2846.27,5569.9
2847.69,5929.4
2849.12,6286.57
2850.55,6627.43
2851.97,6951.18
2853.39,7249.88
2854.82,7521.3
2856.24,7764.5
2857.66,7979.18
2859.09,8166.18
2860.51,8321.41
2861.93,8456.21
2863.35,8571.37
2864.77,8674.6
2866.19,8763.41
2867.6,8840.88
2869.02,8904.4
2870.44,8957.92
2871.85,9001.45
2873.27,9052.95
2874.68,9077.19
2876.1,9097.44
2877.51,9107.03
2878.92,9104.98
2880.33,9100.65
2881.74,9095.57
2883.16,9087.72
2884.57,9070.32
2885.97,9053.51
2887.38,9029.69
2888.79,9003.67
2890.2,8965.78
2891.6,8922.15
2893.01,8869.81
2894.42,8797.51
2895.82,8698.76
2897.22,8560.78
2898.63,8380.67
2900.03,8159.67
2901.43,7908.52
2902.83,7629.5
2904.23,7333.63
2905.63,7023.83
2907.03,6714.98
2908.43,6415.36
2909.83,6133.33
2911.23,5872.33
2912.62,5632.71
2914.02,5419.28
2915.42,5227.41
2916.81,5064.43
2918.2,4927.98
2919.6,4806.72
2920.99,4696.94
2922.38,4599.63
2923.77,4514.23
2925.16,4431.82
2926.55,4356.44
2927.94,4284.41
2929.33,4216.49
2930.72,4137.39
2932.11,4075.23
2933.5,4010.56
2934.88,3951.34
2936.27,3895.14
2937.65,3838.11
2939.04,3782.49
2940.42,3723.28
2941.8,3667.16
2943.18,3607.9
2944.57,3552.71
2945.95,3493.43
2947.33,3437.26
2948.71,3378.2
2950.09,3316.28
2951.46,3257.09
2952.84,3195.76
2954.22,3134.55
2955.6,3076.12
2956.97,3015.94
2958.35,2959.81
2959.72,2906.46
2961.09,2846.31
2962.47,2790.02
2963.84,2733.85
2965.21,2680.75
2966.58,2629.09
2967.95,2579.11
2969.32,2537.48
2970.69,2497.89
2972.06,2461.59
2973.43,2429.1
2974.8,2392.76
2976.16,2361.6
2977.53,2338.06
2978.89,2320.53
2980.26,2300.59
2981.62,2284.2
2982.98,2267.8
2984.35,2253.04
2985.71,2236.74
2987.07,2221.37
2988.43,2208.59
2989.79,2191.22
2991.15,2177.78
2992.51,2160.85
2993.87,2144.46
2995.22,2125.44
2996.58,2109.3
2997.94,2094.28
2999.29,2076.68
3000.65,2060.86
3002,2047.74
3003.36,2033.95
3004.71,2021.88
3006.06,2013.35
3007.41,2002.32
3008.76,1992.85
3010.11,1981.19
3011.46,1970.92
3012.81,1960.13
3014.16,1948.07
3015.51,1936.38
3016.85,1932.38
3018.2,1921.01
3019.55,1911.02
3020.89,1903.28
3022.24,1894.88
3023.58,1886.09
3024.92,1876.41
3026.27,1865.13
3027.61,1854.47
3028.95,1839.8
3030.29,1828.61
3031.63,1819.43
3032.97,1802.36
3034.31,1781.05
3035.65,1758.02
3036.98,1734.82
3038.32,1713.93
3039.66,1696.02
3040.99,1677.26
3042.33,1654.44
3043.66,1631.61
3044.99,1615.76
3046.33,1595.7
3047.66,1578.91
3048.99,1565.24
3050.32,1553.1
3051.65,1540.33
3052.98,1526.24
3054.31,1514.43
3055.64,1503.29
3056.96,1490.82
3058.29,1479.42
3059.62,1465.79
3060.94,1453.41
3062.27,1445.42
3063.59,1432.5
3064.92,1421.42
3066.24,1411.5
3067.56,1404.22
3068.88,1392.44
3070.21,1377.46
3071.53,1363.76
3072.85,1354.07
3074.17,1342.42
3075.48,1332.2
3076.8,1323.5
3078.12,1312.98
3079.44,1298.67
3080.75,1289.03
3082.07,1277.93
3083.38,1266.5
3084.7,1258.8
3086.01,1242.88
3087.32,1233.86
3088.64,1224.86
3089.95,1217.41
3091.26,1207.03
3092.57,1195.79
3093.88,1187.18
3095.19,1176.35
3096.5,1169.44
3097.8,1163.89
3099.11,1154.03
3100.42,1146.37
3101.72,1139.57
3103.03,1131.24
3104.33,1124.1
3105.64,1115.1
3106.94,1107.87
3108.24,1103.88
3109.54,1096.32
3110.84,1095.6
3112.15,1093.66
3113.45,1090.49
3114.75,1084.6
3116.04,1077.74
3117.34,1073.11
3118.64,1071.41
3119.94,1066.6
3121.23,1058.86
3122.53,1054.32
3123.82,1055.05
3125.12,1054.54
3126.41,1052.18
3127.7,1050.55
3129,1045.46
3130.29,1040.72
3131.58,1039.61
3132.87,1037.72
3134.16,1032.76
3135.45,1029.93
3136.74,1028.3
3138.03,1022.28
3139.31,1021.42
3140.6,1020.63
3141.89,1016.97
3143.17,1015.41
3144.46,1018.92
3145.74,1019.67
3147.02,1012.65
3148.31,1013.45
3149.59,1008.04
3150.87,1002.24
3152.15,999.4
3153.43,999.17
3154.71,995.36
3155.99,995.17
3157.27,994.04
3158.55,990.6
3159.82,990.15
3161.1,989.16
3162.38,986.8
3163.65,981.84
3164.93,976.24
3166.2,971.63
3167.47,971.42
3168.75,974.11
3170.02,973.65
3171.29,971.63
3172.56,968.85
3173.83,969.59
3175.1,971.06
3176.37,972.33
3177.64,969.9
3178.91,967.57
3180.17,963.76
3181.44,963.01
3182.7,960.27
3183.97,957.02
3185.23,952.76
3186.5,953.06
3187.76,950.28
3189.02,946.08
3190.29,941.46
3191.55,859.33
3192.81,997.67
3194.07,1124.67
3195.33,940
3196.59,967
3197.85,882.33
3199.1,903.67
3200.36,971
3201.62,1052.33
3202.87,996.33
3204.13,942.67
3205.38,868
3206.63,917.33
3207.89,895.33
3209.14,899.33
3210.39,825.67
3211.64,988.67
3212.89,861.67
3214.14,851
3215.39,762
