Wavenumber [cm-1],Raman Intensity
160.07,40408
162.55,41107.33
165.03,41676.33
167.5,42255.67
169.97,42731.33
172.45,43266.67
174.92,43829.33
177.39,44253
179.86,44865.67
182.33,45388.33
184.8,45913.67
187.27,46495.67
189.74,46918.67
192.2,47341.33
194.67,47651.67
197.14,47963.33
199.6,47993.33
202.06,48126.33
204.53,48241.33
206.99,48359.67
209.45,47227.72
211.91,47457.98
214.37,47666.41
216.83,47862.84
219.29,48043.05
221.74,48212.72
224.2,48370.51
226.65,48511.87
229.11,48644.02
231.56,48759.75
234.02,48860.64
236.47,48951.24
238.92,49026.87
241.37,49092.42
243.82,49145.15
246.27,49189.8
248.72,49223.59
251.16,49258.03
253.61,49289.7
256.06,49316.5
258.5,49336.54
260.95,49357.43
263.39,49377.59
265.83,49397.53
268.27,49420.51
270.71,49437.15
273.15,49458.12
275.59,49473.67
278.03,49484.5
280.47,49491.42
282.91,49495.06
285.34,49493.67
287.78,49490.54
290.21,49482.76
292.64,49467.67
295.08,49453.23
297.51,49435.19
299.94,49418.58
302.37,49399.48
304.8,49377.46
307.23,49355.02
309.66,49330
312.08,49307.63
314.51,49285.35
316.94,49258.3
319.36,49231.63
321.78,49202.51
324.21,49175.17
326.63,49149.28
329.05,49123.18
331.47,49099.87
333.89,49079.45
336.31,49059.19
338.73,49039.45
341.15,49019.47
343.56,49002.37
345.98,48986.01
348.39,48969.41
350.81,48948.41
353.22,48929.12
355.63,48908.35
358.04,48888.67
360.46,48865.93
362.87,48845.01
365.27,48818.59
367.68,48787.28
370.09,48758.31
372.5,48726.59
374.9,48693.47
377.31,48662.2
379.71,48629.54
382.12,48596.9
384.52,48563.9
386.92,48529.77
389.32,48498.94
391.72,48469.53
394.12,48437.25
396.52,48406.59
398.92,48374.18
401.32,48341.06
403.71,48306.62
406.11,48273.15
408.5,48238.72
410.9,48200.61
413.29,48163.15
415.68,48125.96
418.07,48089.37
420.46,48052.44
422.85,48010.89
425.24,47970.26
427.63,47925.99
430.02,47880.22
432.4,47834.48
434.79,47786.13
437.17,47737.35
439.56,47686.19
441.94,47635.09
444.32,47580.62
446.71,47529.5
449.09,47480.41
451.47,47428.81
453.85,47376.47
456.22,47323.65
458.6,47272.9
460.98,47222.11
463.35,47170.43
465.73,47122.88
468.1,47074.72
470.48,47023.27
472.85,46973.39
475.22,46922.03
477.59,46868.96
479.96,46810.37
482.33,46756.67
484.7,46698.06
487.07,46633.1
489.44,46567.97
491.8,46503.51
494.17,46436.76
496.53,46368.38
498.9,46298.22
501.26,46233.28
503.62,46163.2
505.98,46096.93
508.34,46028.54
510.7,45964.25
513.06,45900.28
515.42,45834.42
517.78,45771.5
520.14,45707.2
522.49,45642.21
524.85,45576.5
527.2,45509.88
529.55,45443.76
531.91,45372.94
534.26,45301.88
536.61,45230.46
538.96,45157.37
541.31,45082.75
543.66,45005.67
546,44927.5
548.35,44845.77
550.7,44764.02
553.04,44685.53
555.39,44606.23
557.73,44524.01
560.07,44445.46
562.41,44363.67
564.76,44285.89
567.1,44207.04
569.44,44132.63
571.77,44057.52
574.11,43984.26
576.45,43909.55
578.79,43832.89
581.12,43761.3
583.46,43691.02
585.79,43619.14
588.12,43545.11
590.46,43473.26
592.79,43398.72
595.12,43326.36
597.45,43249.68
599.78,43176.27
602.1,43100.06
604.43,43020.5
606.76,42941.9
609.08,42864.59
611.41,42788.88
613.73,42708.76
616.06,42632.2
618.38,42553.52
620.7,42473.32
623.02,42393.24
625.34,42315.04
627.66,42236.15
629.98,42156.41
632.3,42079.17
634.61,42000.85
636.93,41926.93
639.25,41852.08
641.56,41775.52
643.87,41702.37
646.19,41632.54
648.5,41559.98
650.81,41489.9
653.12,41418.43
655.43,41349.44
657.74,41281.01
660.05,41210.79
662.35,41143.19
664.66,41068.51
666.97,40993.58
669.27,40919.2
671.57,40845.8
673.88,40772.84
676.18,40695.57
678.48,40617.43
680.78,40538.37
683.08,40462.25
685.38,40384.28
687.68,40308.24
689.98,40231.81
692.27,40157.9
694.57,40081.61
696.86,40005.67
699.16,39933.34
701.45,39859.72
703.74,39784.48
706.04,39711.28
708.33,39640.48
710.62,39569
712.91,39499.5
715.2,39432.02
717.48,39364.93
719.77,39294.51
722.06,39228.47
724.34,39160.81
726.63,39094.12
728.91,39024.65
731.19,38955.92
733.48,38886.81
735.76,38819.93
738.04,38751.39
740.32,38680.57
742.6,38609.53
744.87,38538.06
747.15,38469.4
749.43,38398.12
751.7,38328.26
753.98,38256.42
756.25,38179.51
758.53,38109.42
760.8,38039.21
763.07,37967.97
765.34,37896.73
767.61,37822.94
769.88,37753.32
772.15,37684.67
774.42,37615.75
776.68,37545.92
778.95,37476.75
781.21,37406.6
783.48,37338.13
785.74,37268.1
788,37203.58
790.27,37141.12
792.53,37077.96
794.79,37011.59
797.05,36947.89
799.31,36882.11
801.56,36817.13
803.82,36750.54
806.08,36686.63
808.33,36623.32
810.59,36559.38
812.84,36494.28
815.1,36426.46
817.35,36360.89
819.6,36290.96
821.85,36228.42
824.1,36162.66
826.35,36096.52
828.6,36029.91
830.84,35963.59
833.09,35896.11
835.34,35830.72
837.58,35763.2
839.83,35695.56
842.07,35629.19
844.31,35560.81
846.55,35493.93
848.8,35432.21
851.04,35364.91
853.27,35299.89
855.51,35234.13
857.75,35172.19
859.99,35108.98
862.22,35043.59
864.46,34981.6
866.69,34921.11
868.93,34858.62
871.16,34793.36
873.39,34730.9
875.63,34668.56
877.86,34606.25
880.09,34541.52
882.31,34474.97
884.54,34408.52
886.77,34344.51
889,34280.96
891.22,34215.08
893.45,34149.25
895.67,34084.05
897.9,34015.77
900.12,33950.11
902.34,33884.05
904.56,33818.76
906.78,33755.9
909,33693.08
911.22,33631.4
913.44,33567.11
915.65,33501.67
917.87,33439.1
920.08,33378.21
922.3,33314.69
924.51,33253.97
926.73,33192.56
928.94,33130.11
931.15,33069.24
933.36,33006.63
935.57,32948.89
937.78,32892.32
939.99,32832.81
942.19,32777.91
944.4,32719.57
946.61,32664.72
948.81,32608.76
951.02,32556.44
953.22,32504.5
955.42,32449.19
957.62,32394.23
959.82,32340.55
962.02,32285.18
964.22,32228.4
966.42,32171.8
968.62,32114.35
970.82,32058.93
973.01,32004.34
975.21,31954.2
977.4,31901.3
979.6,31849.2
981.79,31800.46
983.98,31751.45
986.17,31704.59
988.36,31653.96
990.55,31606.4
992.74,31557.07
994.93,31506.33
997.12,31452.08
999.3,31399.33
1001.49,31347.1
1003.67,31292.46
1005.86,31240.12
1008.04,31190.44
1010.22,31139.61
1012.41,31092.18
1014.59,31045.22
1016.77,31000.33
1018.95,30959.13
1021.12,30917.46
1023.3,30877.15
1025.48,30832.41
1027.66,30787.31
1029.83,30743.71
1032.01,30696.59
1034.18,30650.31
1036.35,30601.98
1038.52,30548.87
1040.7,30493.62
1042.87,30441.22
1045.04,30384.28
1047.2,30327.41
1049.37,30272.57
1051.54,30223.29
1053.71,30175.75
1055.87,30127.08
1058.04,30083.25
1060.2,30035.39
1062.36,29989.5
1064.53,29940.72
1066.69,29896.19
1068.85,29848.94
1071.01,29801.5
1073.17,29752.53
1075.33,29702.6
1077.49,29655.44
1079.64,29602.97
1081.8,29554.41
1083.95,29502.77
1086.11,29454.96
1088.26,29403.9
1090.42,29355.79
1092.57,29306.92
1094.72,29257.36
1096.87,29207.17
1099.02,29156.89
1101.17,29106.22
1103.32,29058.67
1105.47,29008.21
1107.61,28958.76
1109.76,28909.49
1111.9,28860.16
1114.05,28813.51
1116.19,28765.16
1118.33,28718.33
1120.47,28672.77
1122.62,28625.2
1124.76,28579.84
1126.9,28538.41
1129.03,28496.92
1131.17,28453.1
1133.31,28416.39
1135.45,28376.64
1137.58,28335.38
1139.72,28292.06
1141.85,28248.89
1143.98,28204.99
1146.12,28158.53
1148.25,28114.9
1150.38,28070.27
1152.51,28025.25
1154.64,27980.67
1156.77,27934.78
1158.89,27892.91
1161.02,27851.19
1163.15,27808.59
1165.27,27766.77
1167.4,27725.96
1169.52,27685.13
1171.64,27648.14
1173.76,27609.72
1175.88,27575.14
1178.01,27535.89
1180.13,27498.88
1182.24,27463.52
1184.36,27424.94
1186.48,27388.41
1188.6,27349.27
1190.71,27307.49
1192.83,27268.28
1194.94,27224.58
1197.05,27181.11
1199.17,27138.46
1201.28,27093.4
1203.39,27051
1205.5,27006.65
1207.61,26964.14
1209.72,26926
1211.82,26887.62
1213.93,26846.93
1216.04,26807.78
1218.14,26769.87
1220.25,26728.85
1222.35,26690.96
1224.45,26654.12
1226.56,26618.5
1228.66,26580.46
1230.76,26542.16
1232.86,26504.86
1234.96,26466.44
1237.06,26425.77
1239.15,26385.5
1241.25,26343.89
1243.35,26304.32
1245.44,26261.3
1247.54,26221.4
1249.63,26181.02
1251.72,26142.67
1253.81,26105.2
1255.91,26064.87
1258,26027.58
1260.09,25990.76
1262.17,25954.04
1264.26,25919.52
1266.35,25884.63
1268.44,25848.54
1270.52,25811.42
1272.61,25774.46
1274.69,25740.63
1276.77,25704.29
1278.86,25665.31
1280.94,25626.09
1283.02,25588.49
1285.1,25546.8
1287.18,25508.62
1289.26,25468.75
1291.34,25429.15
1293.41,25386.74
1295.49,25344.79
1297.56,25303.2
1299.64,25263.35
1301.71,25225.06
1303.79,25184.98
1305.86,25146.16
1307.93,25107.78
1310,25067.41
1312.07,25027.61
1314.14,24990.08
1316.21,24954.73
1318.28,24917.22
1320.34,24878.45
1322.41,24841.01
1324.47,24802.47
1326.54,24759.87
1328.6,24719.3
1330.66,24678.8
1332.73,24633.76
1334.79,24588.67
1336.85,24544.37
1338.91,24499.65
1340.97,24457
1343.03,24410.63
1345.08,24365.27
1347.14,24319.57
1349.19,24274.37
1351.25,24230.42
1353.3,24186.33
1355.36,24145.37
1357.41,24103.51
1359.46,24060.38
1361.51,24018.9
1363.56,23978.88
1365.61,23939.58
1367.66,23897.24
1369.71,23856.06
1371.76,23813.8
1373.8,23769.98
1375.85,23725.95
1377.89,23683.35
1379.94,23638.96
1381.98,23593.5
1384.02,23551.04
1386.07,23505.59
1388.11,23462.76
1390.15,23424.11
1392.19,23383.5
1394.22,23346.93
1396.26,23311.49
1398.3,23275.45
1400.34,23237.02
1402.37,23199.93
1404.41,23162.41
1406.44,23125.07
1408.47,23087.61
1410.51,23051.88
1412.54,23015.05
1414.57,22976.84
1416.6,22937.58
1418.63,22899.87
1420.66,22859.46
1422.68,22818.33
1424.71,22778.46
1426.74,22737.84
1428.76,22699.19
1430.79,22658.02
1432.81,22617.41
1434.83,22576.9
1436.85,22534.92
1438.88,22492.67
1440.9,22448.31
1442.92,22405.11
1444.94,22363.19
1446.95,22319.34
1448.97,22275.76
1450.99,22230.5
1453,22185.63
1455.02,22139.16
1457.03,22095.31
1459.05,22050.55
1461.06,22006.45
1463.07,21962.06
1465.08,21917.57
1467.09,21872.33
1469.1,21828.46
1471.11,21785.6
1473.12,21736.67
1475.13,21688.37
1477.13,21639.3
1479.14,21588.15
1481.15,21538.83
1483.15,21489.31
1485.15,21438.66
1487.16,21390.25
1489.16,21339.23
1491.16,21289.68
1493.16,21240.22
1495.16,21189.04
1497.16,21139.74
1499.16,21090.64
1501.15,21041.18
1503.15,20991.02
1505.15,20943.49
1507.14,20893.15
1509.14,20845.54
1511.13,20796.84
1513.12,20749.78
1515.11,20703.18
1517.1,20655.34
1519.09,20610.92
1521.08,20565.75
1523.07,20521.93
1525.06,20479.02
1527.05,20434.72
1529.03,20393.8
1531.02,20349.44
1533.01,20306.62
1534.99,20266.58
1536.97,20225.05
1538.96,20180.83
1540.94,20137.12
1542.92,20089.74
1544.9,20044.01
1546.88,19998.45
1548.86,19950.74
1550.84,19903.32
1552.81,19853.72
1554.79,19807.36
1556.76,19763.96
1558.74,19717.81
1560.71,19673.3
1562.69,19626.89
1564.66,19582.2
1566.63,19537.94
1568.6,19495.91
1570.57,19453.74
1572.54,19411.7
1574.51,19370.33
1576.48,19327.25
1578.45,19281.09
1580.41,19236.47
1582.38,19191.25
1584.34,19145.62
1586.31,19097.7
1588.27,19050.95
1590.23,19003.44
1592.19,18955.03
1594.16,18906.82
1596.12,18857.15
1598.07,18809.31
1600.03,18760.72
1601.99,18713.69
1603.95,18668.02
1605.9,18621.18
1607.86,18576.54
1609.82,18530.61
1611.77,18489.25
1613.72,18447.28
1615.68,18402.87
1617.63,18359.39
1619.58,18316.33
1621.53,18271.98
1623.48,18229.67
1625.43,18184.52
1627.37,18137.71
1629.32,18091.58
1631.27,18042.28
1633.21,17992.44
1635.16,17943.82
1637.1,17891.04
1639.05,17840.2
1640.99,17789.28
1642.93,17738.02
1644.87,17687.74
1646.81,17638.3
1648.75,17587.01
1650.69,17537.79
1652.63,17488.15
1654.56,17438.2
1656.5,17389.7
1658.44,17340.32
1660.37,17295.09
1662.31,17246.79
1664.24,17198.12
1666.17,17149.51
1668.1,17101.53
1670.03,17050.95
1671.96,17000.36
1673.89,16948.95
1675.82,16897.61
1677.75,16845.03
1679.68,16793.08
1681.6,16742.14
1683.53,16689.54
1685.46,16638.88
1687.38,16587.92
1689.3,16535.9
1691.23,16485.12
1693.15,16434.91
1695.07,16387.18
1696.99,16340.19
1698.91,16293.84
1700.83,16249.3
1702.75,16200.9
1704.66,16155.76
1706.58,16109.98
1708.5,16063.15
1710.41,16018.41
1712.32,15972.49
1714.24,15921.51
1716.15,15873.23
1718.06,15824.93
1719.97,15773.58
1721.88,15724.46
1723.79,15673.48
1725.7,15625.01
1727.61,15576.87
1729.52,15528.43
1731.43,15481.09
1733.33,15434.29
1735.24,15390.19
1737.14,15349.33
1739.04,15305.94
1740.95,15263.98
1742.85,15224.53
1744.75,15184.04
1746.65,15143.88
1748.55,15105.07
1750.45,15063.9
1752.35,15023.54
1754.25,14981.87
1756.14,14939.8
1758.04,14895.35
1759.93,14849.46
1761.83,14803.18
1763.72,14754.62
1765.61,14705.26
1767.51,14657.24
1769.4,14607.67
1771.29,14559.49
1773.18,14509.41
1775.07,14461.51
1776.96,14413.27
1778.84,14366.82
1780.73,14324.59
1782.62,14280.94
1784.5,14238.93
1786.39,14198.46
1788.27,14159.07
1790.15,14122.11
1792.04,14086.02
1793.92,14047.56
1795.8,14009.27
1797.68,13970.88
1799.56,13932.35
1801.44,13893.33
1803.32,13851.93
1805.19,13810.12
1807.07,13766.81
1808.94,13722.02
1810.82,13677.51
1812.69,13631.07
1814.57,13585.28
1816.44,13537.4
1818.31,13495.11
1820.18,13450.65
1822.05,13410.35
1823.92,13368.02
1825.79,13327.4
1827.66,13289.28
1829.53,13252.77
1831.39,13216.24
1833.26,13180.21
1835.12,13146.3
1836.99,13111.93
1838.85,13076.89
1840.71,13041.72
1842.58,13005.89
1844.44,12968.2
1846.3,12931.09
1848.16,12891.88
1850.02,12852.93
1851.87,12810.83
1853.73,12768.98
1855.59,12727.08
1857.44,12685.8
1859.3,12643.65
1861.15,12603.21
1863.01,12563.64
1864.86,12525.42
1866.71,12483.95
1868.56,12445.66
1870.41,12410.2
1872.26,12372.91
1874.11,12337.08
1875.96,12299.93
1877.81,12264.01
1879.66,12226.66
1881.5,12189.12
1883.35,12152.69
1885.19,12115.2
1887.04,12077.5
1888.88,12039.22
1890.72,12000.84
1892.56,11965.48
1894.41,11925.64
1896.25,11888.32
1898.09,11847.84
1899.92,11808.45
1901.76,11770.71
1903.6,11732.98
1905.44,11693.76
1907.27,11654.41
1909.11,11616.12
1910.94,11579.2
1912.77,11540.54
1914.61,11503.84
1916.44,11467.19
1918.27,11429.76
1920.1,11394.2
1921.93,11357.15
1923.76,11322.09
1925.59,11285.59
1927.41,11250.24
1929.24,11216.47
1931.07,11181.47
1932.89,11144.74
1934.72,11108.85
1936.54,11071.77
1938.36,11034.37
1940.19,10997.07
1942.01,10961.53
1943.83,10924.85
1945.65,10888.02
1947.47,10852.81
1949.29,10819.07
1951.1,10784.92
1952.92,10751.81
1954.74,10720.69
1956.55,10687.88
1958.37,10654.95
1960.18,10624.02
1961.99,10594.31
1963.81,10564.07
1965.62,10532.86
1967.43,10501.64
1969.24,10468.63
1971.05,10434.95
1972.86,10400.18
1974.67,10364.9
1976.47,10328.51
1978.28,10291.33
1980.09,10254.54
1981.89,10221.18
1983.7,10185.96
1985.5,10150.04
1987.3,10116.48
1989.11,10084.55
1990.91,10053.15
1992.71,10023.02
1994.51,9992.93
1996.31,9964.51
1998.11,9936.52
1999.9,9909.54
2001.7,9881.28
2003.5,9851.24
2005.29,9821.5
2007.09,9791.24
2008.88,9760.89
2010.67,9729.87
2012.47,9696.54
2014.26,9661.06
2016.05,9625.69
2017.84,9591.03
2019.63,9556.54
2021.42,9520.8
2023.21,9484.68
2024.99,9450.19
2026.78,9417.2
2028.57,9382.8
2030.35,9351.89
2032.14,9321.87
2033.92,9292.8
2035.7,9264.02
2037.48,9235.81
2039.27,9206.8
2041.05,9177.18
2042.83,9148.6
2044.61,9118.99
2046.38,9091.09
2048.16,9061.86
2049.94,9031.12
2051.71,9001.61
2053.49,8971.27
2055.27,8939.35
2057.04,8908.17
2058.81,8877.32
2060.59,8846.19
2062.36,8812.87
2064.13,8781.52
2065.9,8750.09
2067.67,8719.6
2069.44,8688.62
2071.21,8657.93
2072.97,8628.58
2074.74,8600.24
2076.51,8572.1
2078.27,8543.85
2080.04,8517.85
2081.8,8490.67
2083.56,8463.16
2085.32,8436.19
2087.09,8409.6
2088.85,8383.24
2090.61,8354.95
2092.37,8325.73
2094.12,8297.56
2095.88,8268.28
2097.64,8239.14
2099.4,8207.38
2101.15,8176.89
2102.91,8146.87
2104.66,8115.7
2106.41,8086.07
2108.17,8055.37
2109.92,8025.83
2111.67,7998.84
2113.42,7970.07
2115.17,7943.02
2116.92,7917.93
2118.67,7890.88
2120.42,7865.69
2122.16,7841.72
2123.91,7817.33
2125.65,7792.93
2127.4,7766.58
2129.14,7741.63
2130.89,7714.74
2132.63,7688.04
2134.37,7662.62
2136.11,7634.14
2137.85,7605.28
2139.59,7575.28
2141.33,7545.92
2143.07,7515.6
2144.81,7485.92
2146.54,7456.33
2148.28,7429.01
2150.01,7400.29
2151.75,7371.96
2153.48,7345.32
2155.22,7318.39
2156.95,7293.66
2158.68,7269.06
2160.41,7244.92
2162.14,7221.67
2163.87,7198.9
2165.6,7175.59
2167.33,7153.31
2169.05,7130.46
2170.78,7106.69
2172.51,7082.05
2174.23,7054.98
2175.96,7028.42
2177.68,7000.75
2179.4,6973.33
2181.12,6945.85
2182.85,6916.8
2184.57,6888.07
2186.29,6860.29
2188.01,6832.13
2189.72,6805.65
2191.44,6780.53
2193.16,6754.15
2194.87,6728.16
2196.59,6702.55
2198.31,6679.76
2200.02,6654.81
2201.73,6631.53
2203.45,6607.24
2205.16,6583.14
2206.87,6559.9
2208.58,6535.8
2210.29,6512.07
2212,6487.42
2213.71,6462.76
2215.41,6437.65
2217.12,6412.89
2218.83,6386.57
2220.53,6361.07
2222.24,6334.33
2223.94,6307.76
2225.64,6281.68
2227.35,6257.04
2229.05,6231.35
2230.75,6206.48
2232.45,6181.02
2234.15,6155.3
2235.85,6131.07
2237.55,6106.58
2239.24,6082.35
2240.94,6059.99
2242.64,6037.65
2244.33,6016.44
2246.03,5995.09
2247.72,5972.11
2249.41,5949.19
2251.11,5926.71
2252.8,5903.54
2254.49,5882.79
2256.18,5861.15
2257.87,5838.78
2259.56,5816.52
2261.25,5793.55
2262.93,5771.6
2264.62,5748.78
2266.31,5726.35
2267.99,5702.73
2269.68,5680.91
2271.36,5659.32
2273.04,5637.72
2274.73,5616.53
2276.41,5596.13
2278.09,5576.32
2279.77,5554.33
2281.45,5533.67
2283.13,5514.06
2284.8,5494.17
2286.48,5474.41
2288.16,5453.6
2289.83,5433.11
2291.51,5414.23
2293.18,5395.37
2294.86,5376.11
2296.53,5355.42
2298.2,5335.37
2299.88,5314.52
2301.55,5294.33
2303.22,5275.35
2304.89,5255.68
2306.55,5236.91
2308.22,5217.14
2309.89,5197.11
2311.56,5177.58
2313.22,5158.51
2314.89,5140.33
2316.55,5123
2318.22,5105.84
2319.88,5088.93
2321.54,5071.98
2323.2,5053.75
2324.86,5035.93
2326.52,5018.85
2328.18,5001.2
2329.84,4982.56
2331.5,4964.55
2333.16,4946.92
2334.81,4927.56
2336.47,4910.65
2338.12,4891.93
2339.78,4872.6
2341.43,4853.79
2343.09,4834.55
2344.74,4815.07
2346.39,4795.98
2348.04,4780.53
2349.69,4763.57
2351.34,4744.97
2352.99,4729.35
2354.64,4713.05
2356.28,4697.38
2357.93,4681.67
2359.58,4663.36
2361.22,4645.08
2362.87,4628.5
2364.51,4612.17
2366.15,4594.99
2367.8,4577.65
2369.44,4560.97
2371.08,4542.61
2372.72,4524.65
2374.36,4505.59
2376,4486.83
2377.64,4468.04
2379.27,4449.69
2380.91,4431.02
2382.55,4412.93
2384.18,4394.33
2385.82,4375.98
2387.45,4357.5
2389.08,4340.84
2390.71,4325.09
2392.35,4307.55
2393.98,4290.72
2395.61,4273.99
2397.24,4256.07
2398.87,4238.86
2400.49,4221.07
2402.12,4205.28
2403.75,4188.67
2405.37,4173.03
2407,4156.24
2408.62,4139.92
2410.25,4122.74
2411.87,4105.82
2413.49,4090.28
2415.12,4073.11
2416.74,4055.35
2418.36,4038.09
2419.98,4018.33
2421.6,3998.51
2423.21,3981.07
2424.83,3963.67
2426.45,3947.39
2428.07,3930.72
2429.68,3913.76
2431.3,3897.07
2432.91,3880.87
2434.52,3864.59
2436.14,3848.26
2437.75,3832.67
2439.36,3816.5
2440.97,3800.89
2442.58,3785.24
2444.19,3771.37
2445.8,3755.8
2447.4,3740.15
2449.01,3723.46
2450.62,3707.7
2452.22,3692.53
2453.83,3676.1
2455.43,3658.5
2457.04,3640.17
2458.64,3623.05
2460.24,3605.11
2461.84,3587.79
2463.44,3573.75
2465.04,3556.19
2466.64,3540.93
2468.24,3525.15
2469.84,3508.86
2471.44,3493.35
2473.03,3478
2474.63,3462.85
2476.22,3448.06
2477.82,3433.72
2479.41,3419.16
2481,3404.54
2482.6,3390.85
2484.19,3376.86
2485.78,3363.9
2487.37,3351.55
2488.96,3337.93
2490.55,3323.71
2492.14,3309.24
2493.72,3295.69
2495.31,3280.86
2496.9,3264.63
2498.48,3251.41
2500.07,3236.68
2501.65,3222.18
2503.23,3207.6
2504.82,3191.31
2506.4,3176.98
2507.98,3162.51
2509.56,3147.09
2511.14,3133.04
2512.72,3120.03
2514.3,3106.79
2515.87,3094.88
2517.45,3082.47
2519.03,3070.5
2520.6,3059.27
2522.18,3048.48
2523.75,3037.28
2525.32,3026.86
2526.9,3015.53
2528.47,3002.78
2530.04,2991.59
2531.61,2978.67
2533.18,2965.89
2534.75,2953.27
2536.32,2940.4
2537.89,2928.39
2539.45,2915.53
2541.02,2902.69
2542.59,2889.48
2544.15,2875.85
2545.72,2863.07
2547.28,2850.39
2548.84,2838.74
2550.41,2826.82
2551.97,2814.37
2553.53,2801.33
2555.09,2790.01
2556.65,2778.76
2558.21,2767.74
2559.76,2757.13
2561.32,2746.99
2562.88,2735.4
2564.43,2724.99
2565.99,2714.59
2567.54,2704.39
2569.1,2695.79
2570.65,2685.59
2572.2,2675.87
2573.76,2665.11
2575.31,2654
2576.86,2641.22
2578.41,2631.54
2579.96,2618.64
2581.51,2606.72
2583.05,2595.47
2584.6,2582.86
2586.15,2570.68
2587.69,2559.1
2589.24,2546.58
2590.78,2535.67
2592.33,2523.92
2593.87,2512.3
2595.41,2503.18
2596.95,2492.59
2598.49,2481.76
2600.03,2470.84
2601.57,2460.17
2603.11,2450.51
2604.65,2439.83
2606.19,2430.52
2607.72,2420.55
2609.26,2410.09
2610.8,2400.14
2612.33,2390.02
2613.86,2377.8
2615.4,2367.88
2616.93,2358.44
2618.46,2347.34
2619.99,2336.29
2621.52,2323.72
2623.05,2313.02
2624.58,2302.75
2626.11,2291.73
2627.64,2280.82
2629.17,2269.77
2630.69,2258.48
2632.22,2247.76
2633.74,2236.93
2635.27,2226.35
2636.79,2216.34
2638.32,2206.47
2639.84,2198.09
2641.36,2186.73
2642.88,2177.67
2644.4,2167.85
2645.92,2158.11
2647.44,2149.21
2648.96,2138.64
2650.47,2129.26
2651.99,2120.58
2653.51,2111.44
2655.02,2103.58
2656.54,2095.15
2658.05,2084.41
2659.57,2076.11
2661.08,2066.61
2662.59,2056.78
2664.1,2046.53
2665.61,2035.59
2667.12,2026.04
2668.63,2015.99
2670.14,2006.89
2671.65,1997.07
2673.16,1987.43
2674.66,1977.75
2676.17,1969.69
2677.67,1960.27
2679.18,1950.98
2680.68,1942.51
2682.18,1934.97
2683.69,1928.28
2685.19,1918.72
2686.69,1909.33
2688.19,1901.78
2689.69,1894.22
2691.19,1886.98
2692.69,1878.99
2694.19,1870.71
2695.68,1862.72
2697.18,1854.69
2698.68,1845.65
2700.17,1838.09
2701.66,1830.39
2703.16,1822.53
2704.65,1814.05
2706.14,1804.98
2707.64,1796.57
2709.13,1787.76
2710.62,1779.78
2712.11,1770.67
2713.59,1761.29
2715.08,1752.54
2716.57,1743.02
2718.06,1735.25
2719.54,1727.5
2721.03,1718.02
2722.51,1709.03
2724,1701.44
2725.48,1693.93
2726.96,1687.19
2728.45,1679.94
2729.93,1671.46
2731.41,1663.61
2732.89,1655.94
2734.37,1649.21
2735.85,1640.97
2737.33,1633.46
2738.8,1626.2
2740.28,1618.15
2741.76,1610.64
2743.23,1602.02
2744.71,1593.27
2746.18,1585.61
2747.65,1577.76
2749.13,1568.74
2750.6,1559.45
2752.07,1551.52
2753.54,1544.12
2755.01,1536.98
2756.48,1528.75
2757.95,1519.42
2759.42,1512.11
2760.88,1504.14
2762.35,1495.53
2763.82,1487.84
2765.28,1480.2
2766.75,1473.82
2768.21,1465.77
2769.67,1459.43
2771.14,1453.34
2772.6,1447.4
2774.06,1441.35
2775.52,1434.85
2776.98,1427.12
2778.44,1420.29
2779.9,1414.28
2781.35,1407.51
2782.81,1403.26
2784.27,1396.89
2785.72,1390.4
2787.18,1383.7
2788.63,1376.45
2790.09,1370.79
2791.54,1364.54
2792.99,1358.73
2794.45,1352.21
2795.9,1346.28
2797.35,1340.71
2798.8,1335.06
2800.25,1329.63
2801.69,1324.16
2803.14,1319.17
2804.59,1314.66
2806.04,1311.85
2807.48,1308.49
2808.93,1306.21
2810.37,1303.44
2811.81,1299.48
2813.26,1296.18
2814.7,1293.42
2816.14,1291.84
2817.58,1292.12
2819.02,1292.17
2820.46,1291.25
2821.9,1290.48
2823.34,1290.89
2824.78,1291.44
2826.22,1289.95
2827.65,1289.38
2829.09,1288.82
2830.52,1288.1
2831.96,1287.41
2833.39,1286.01
2834.82,1284.75
2836.26,1286.15
2837.69,1285.02
2839.12,1283.24
2840.55,1282.8
2841.98,1280.59
2843.41,1279.42
2844.84,1278.65
2846.27,1277.55
2847.69,1277.62
2849.12,1276.66
2850.55,1275.31
2851.97,1274.37
2853.39,1273.23
2854.82,1272.22
2856.24,1270.21
2857.66,1268.08
2859.09,1267.15
2860.51,1266.45
2861.93,1265.13
2863.35,1264.07
2864.77,1261.69
2866.19,1259.72
2867.6,1256.05
2869.02,1253.39
2870.44,1250.8
2871.85,1248.05
2873.27,1242
2874.68,1238.32
2876.1,1232.84
2877.51,1228.31
2878.92,1224.02
2880.33,1220.06
2881.74,1214.32
2883.16,1208.18
2884.57,1203.45
2885.97,1198.93
2887.38,1193.26
2888.79,1187.59
2890.2,1183.16
2891.6,1178.09
2893.01,1172.14
2894.42,1166.57
2895.82,1161.46
2897.22,1156.59
2898.63,1151.53
2900.03,1145.82
2901.43,1141.05
2902.83,1136.1
2904.23,1131.89
2905.63,1126.72
2907.03,1121.34
2908.43,1115.85
2909.83,1110.32
2911.23,1104.1
2912.62,1098.41
2914.02,1093.32
2915.42,1088.09
2916.81,1081.37
2918.2,1073.5
2919.6,1067.07
2920.99,1060.52
2922.38,1053.79
2923.77,1045.89
2925.16,1038.41
2926.55,1030.67
2927.94,1023.02
2929.33,1015.82
2930.72,1011.15
2932.11,1003.52
2933.5,996.15
2934.88,987.87
2936.27,979.62
2937.65,970.37
2939.04,962.07
2940.42,954.29
2941.8,946.54
2943.18,938.61
2944.57,929.97
2945.95,921.37
2947.33,911.94
2948.71,903.98
2950.09,896.3
2951.46,887.35
2952.84,877.93
2954.22,868.82
2955.6,860.46
2956.97,852.59
2958.35,844.13
2959.72,834.85
2961.09,826.08
2962.47,817.45
2963.84,808.63
2965.21,800.38
2966.58,791.5
2967.95,783.83
2969.32,776.9
2970.69,768.68
2972.06,761.93
2973.43,754.34
2974.8,747.77
2976.16,741.04
2977.53,733.73
2978.89,725.42
2980.26,718.59
2981.62,711.9
2982.98,705.72
2984.35,699.11
2985.71,692.29
2987.07,685.37
2988.43,679.41
2989.79,673.68
2991.15,667.4
2992.51,661.42
2993.87,656.31
2995.22,651.27
2996.58,646.24
2997.94,640.61
2999.29,635.24
3000.65,630.37
3002,625.72
3003.36,620.29
3004.71,614.64
3006.06,608.58
3007.41,603.62
3008.76,599.69
3010.11,595.52
3011.46,590.38
3012.81,586.31
3014.16,581.54
3015.51,577.89
3016.85,572.93
3018.2,568.82
3019.55,565.14
3020.89,561.37
3022.24,558.12
3023.58,554.81
3024.92,550.02
3026.27,546.25
3027.61,541.15
3028.95,537.7
3030.29,533.91
3031.63,528.83
3032.97,524.7
3034.31,521.33
3035.65,518.33
3036.98,514.8
3038.32,511.26
3039.66,507.08
3040.99,503.25
3042.33,499.89
3043.66,496.11
3044.99,491.7
3046.33,488.47
3047.66,484.7
3048.99,480.65
3050.32,476.53
3051.65,471.93
3052.98,468.3
3054.31,464.63
3055.64,460.27
3056.96,456.72
3058.29,453.12
3059.62,450.67
3060.94,448.46
3062.27,444.95
3063.59,442.46
3064.92,439.56
3066.24,436.23
3067.56,431.76
3068.88,428.33
3070.21,425.81
3071.53,423.24
3072.85,419.6
3074.17,416.35
3075.48,412.28
3076.8,408.55
3078.12,404.59
3079.44,401.35
3080.75,398
3082.07,394.95
3083.38,391.65
3084.7,387.5
3086.01,384.67
3087.32,382.04
3088.64,379.15
3089.95,375.93
3091.26,373.34
3092.57,370.15
3093.88,367.43
3095.19,364.32
3096.5,361.06
3097.8,357.45
3099.11,354.9
3100.42,352.34
3101.72,350.73
3103.03,348.59
3104.33,345.82
3105.64,343.55
3106.94,340.24
3108.24,337.2
3109.54,334.72
3110.84,331.8
3112.15,329.27
3113.45,326.55
3114.75,324.47
3116.04,322.05
3117.34,318.89
3118.64,315.52
3119.94,313.21
3121.23,311.52
3122.53,309.02
3123.82,304.83
3125.12,301.71
3126.41,299.02
3127.7,296.34
3129,295.18
3130.29,292.94
3131.58,290.45
3132.87,287.97
3134.16,284.89
3135.45,282.02
3136.74,278.71
3138.03,276.88
3139.31,274.62
3140.6,271.41
3141.89,269.15
3143.17,266.41
3144.46,263.06
3145.74,260.39
3147.02,258.92
3148.31,256.86
3149.59,254.7
3150.87,253.25
3152.15,251.66
3153.43,248.56
3154.71,245.8
3155.99,243.15
3157.27,240.74
3158.55,239.54
3159.82,238.33
3161.1,235.87
3162.38,233.59
3163.65,231.74
3164.93,230.8
3166.2,228.35
3167.47,225.61
3168.75,222.48
3170.02,220.66
3171.29,218.7
3172.56,217.01
3173.83,214.76
3175.1,212.52
3176.37,210.8
3177.64,208.37
3178.91,206.39
3180.17,204.61
3181.44,201.68
3182.7,200.24
3183.97,198.26
3185.23,196.88
3186.5,195.54
3187.76,193.72
3189.02,192.58
3190.29,190.93
3191.55,190
3192.81,182.67
3194.07,144.33
3195.33,204
3196.59,170
3197.85,195.67
3199.1,180.67
3200.36,167.67
3201.62,160
3202.87,152
3204.13,162
3205.38,174.67
3206.63,158
3207.89,185.33
3209.14,161
3210.39,173
3211.64,152.33
3212.89,153
3214.14,150.33
3215.39,160.33
