Wavenumber [cm-1],Raman Intensity
160.07,12189.33
162.55,12290.33
165.03,12465.67
167.5,12519.67
169.97,12729.67
172.45,12931
174.92,12986.33
177.39,13152.67
179.86,13288.33
182.33,13349
184.8,13519.33
187.27,13649.67
189.74,13809.67
192.2,13871
194.67,13874.67
197.14,14004.67
199.6,14069.33
202.06,14039.67
204.53,14019
206.99,14082.67
209.45,13830.89
211.91,13885.56
214.37,13936.05
216.83,13983.68
219.29,14030.15
221.74,14071.77
224.2,14109.21
226.65,14143.33
229.11,14173.33
231.56,14200.26
234.02,14224.69
236.47,14247.12
238.92,14264.76
241.37,14279.16
243.82,14290.36
246.27,14300.68
248.72,14306.9
251.16,14312.22
253.61,14317.46
256.06,14322.71
258.5,14327.37
260.95,14330.56
263.39,14333.51
265.83,14336.74
268.27,14340.93
270.71,14343.24
273.15,14347.18
275.59,14349.95
278.03,14350.6
280.47,14350.82
282.91,14350.67
285.34,14349.3
287.78,14347
290.21,14342.43
292.64,14336.49
295.08,14330.24
297.51,14322.17
299.94,14315.89
302.37,14309.86
304.8,14302.64
307.23,14296.17
309.66,14290.63
312.08,14283.48
314.51,14278.09
316.94,14270.61
319.36,14263.58
321.78,14255.38
324.21,14246.01
326.63,14239.18
329.05,14231.85
331.47,14224.18
333.89,14218.38
336.31,14210.91
338.73,14204.54
341.15,14196.94
343.56,14192.67
345.98,14188.24
348.39,14183.24
350.81,14178.7
353.22,14173.8
355.63,14168.51
358.04,14162.09
360.46,14156.84
362.87,14149.95
365.27,14144.54
367.68,14134.21
370.09,14126.41
372.5,14116.14
374.9,14106.72
377.31,14097.42
379.71,14087.18
382.12,14076.4
384.52,14067.46
386.92,14055.53
389.32,14045.14
391.72,14038.97
394.12,14028.9
396.52,14021.46
398.92,14012.26
401.32,14002.98
403.71,13992.07
406.11,13979.99
408.5,13968.4
410.9,13957.73
413.29,13946.54
415.68,13935.83
418.07,13923.21
420.46,13912.2
422.85,13899.73
425.24,13887.12
427.63,13875.19
430.02,13863.53
432.4,13849.2
434.79,13834.84
437.17,13820.46
439.56,13806.16
441.94,13791.12
444.32,13775.56
446.71,13762.19
449.09,13746.73
451.47,13731.15
453.85,13716.3
456.22,13702.25
458.6,13686.15
460.98,13670.07
463.35,13653.76
465.73,13641.76
468.1,13628.42
470.48,13614.15
472.85,13598.04
475.22,13582.64
477.59,13566.47
479.96,13549.75
482.33,13531.92
484.7,13515.83
487.07,13496.54
489.44,13477.92
491.8,13459.44
494.17,13440.75
496.53,13420.94
498.9,13399.46
501.26,13379.98
503.62,13359.98
505.98,13341.68
508.34,13321.7
510.7,13303.21
513.06,13284.15
515.42,13265.39
517.78,13246.02
520.14,13226.59
522.49,13208.12
524.85,13186.88
527.2,13165.65
529.55,13145.87
531.91,13123.93
534.26,13103.32
536.61,13081.72
538.96,13059.15
541.31,13037.23
543.66,13014.28
546,12991.78
548.35,12967.18
550.7,12944.15
553.04,12921.2
555.39,12899.09
557.73,12877.85
560.07,12854.69
562.41,12828.91
564.76,12804.86
567.1,12782.02
569.44,12761.33
571.77,12739.62
574.11,12718.81
576.45,12697.54
578.79,12675.63
581.12,12653.71
583.46,12634.85
585.79,12612.33
588.12,12591.31
590.46,12569.21
592.79,12547.64
595.12,12526.55
597.45,12506.07
599.78,12486.28
602.1,12463.45
604.43,12441.89
606.76,12419.04
609.08,12396.21
611.41,12375
613.73,12351.65
616.06,12330.01
618.38,12305.4
620.7,12282.66
623.02,12259.37
625.34,12237.72
627.66,12214.57
629.98,12191.2
632.3,12169.28
634.61,12147.54
636.93,12126.03
639.25,12104.11
641.56,12081.49
643.87,12062.58
646.19,12042.62
648.5,12021.09
650.81,12000.76
653.12,11979.28
655.43,11958.98
657.74,11939.49
660.05,11917.63
662.35,11895.99
664.66,11873.72
666.97,11852.67
669.27,11831.44
671.57,11808.96
673.88,11788.79
676.18,11766.41
678.48,11743.86
680.78,11720.39
683.08,11698.29
685.38,11675.43
687.68,11653.67
689.98,11631.35
692.27,11606.62
694.57,11582.98
696.86,11559
699.16,11536.52
701.45,11513.45
703.74,11491.48
706.04,11467.88
708.33,11445.63
710.62,11424.76
712.91,11404.28
715.2,11383.27
717.48,11362.62
719.77,11340.71
722.06,11321.98
724.34,11303.6
726.63,11283.02
728.91,11261.67
731.19,11242.8
733.48,11222.52
735.76,11202.9
738.04,11183.6
740.32,11162.33
742.6,11141.85
744.87,11121.75
747.15,11103.47
749.43,11082.82
751.7,11063.58
753.98,11044.59
756.25,11023.97
758.53,11003.15
760.8,10981.72
763.07,10960.59
765.34,10940.22
767.61,10918.15
769.88,10899.31
772.15,10879.28
774.42,10859.28
776.68,10840.62
778.95,10822.03
781.21,10802.73
783.48,10784.98
785.74,10768.38
788,10751.12
790.27,10735.25
792.53,10717.85
794.79,10700.11
797.05,10681.66
799.31,10664.06
801.56,10647.19
803.82,10628.33
806.08,10612.59
808.33,10595.45
810.59,10578.5
812.84,10562.15
815.1,10543.6
817.35,10525.25
819.6,10507.97
821.85,10491.36
824.1,10472.77
826.35,10456.28
828.6,10438.98
830.84,10420.4
833.09,10402.32
835.34,10384.22
837.58,10367.45
839.83,10349.71
842.07,10332.5
844.31,10313.65
846.55,10296.34
848.8,10280.53
851.04,10264.01
853.27,10247.66
855.51,10231.77
857.75,10216.35
859.99,10198.55
862.22,10179.88
864.46,10163.45
866.69,10147.95
868.93,10132.98
871.16,10115.41
873.39,10099.15
875.63,10080.4
877.86,10061.21
880.09,10041.94
882.31,10024.11
884.54,10005.13
886.77,9989.77
889,9972.98
891.22,9956.02
893.45,9938.02
895.67,9919.46
897.9,9899.03
900.12,9881.89
902.34,9863.95
904.56,9845.63
906.78,9829.06
909,9809.86
911.22,9792.28
913.44,9774.28
915.65,9755.18
917.87,9735.91
920.08,9718.22
922.3,9701.48
924.51,9686.19
926.73,9670.37
928.94,9651.93
931.15,9632.76
933.36,9614.53
935.57,9598.07
937.78,9582.02
939.99,9563.99
942.19,9547.06
944.4,9531.65
946.61,9513.19
948.81,9495.76
951.02,9480.28
953.22,9464.76
955.42,9448.73
957.62,9431.99
959.82,9413.98
962.02,9399.65
964.22,9383.87
966.42,9371.78
968.62,9357.39
970.82,9344.16
973.01,9330.05
975.21,9317.57
977.4,9301.47
979.6,9288.36
981.79,9272.93
983.98,9260.95
986.17,9248.95
988.36,9237.07
990.55,9224.89
992.74,9212.07
994.93,9199.39
997.12,9186.36
999.3,9175.14
1001.49,9164.19
1003.67,9155.5
1005.86,9147.46
1008.04,9140.8
1010.22,9135.24
1012.41,9130.91
1014.59,9127.9
1016.77,9126.07
1018.95,9126.2
1021.12,9127.93
1023.3,9125.9
1025.48,9122.2
1027.66,9115.44
1029.83,9108.95
1032.01,9099.46
1034.18,9089.45
1036.35,9080.92
1038.52,9071.44
1040.7,9064
1042.87,9054.45
1045.04,9044.65
1047.2,9033.87
1049.37,9023.5
1051.54,9012.63
1053.71,9001.72
1055.87,8990.37
1058.04,8981.75
1060.2,8972.2
1062.36,8962.98
1064.53,8954.05
1066.69,8945.3
1068.85,8934.8
1071.01,8927.75
1073.17,8918.39
1075.33,8911.27
1077.49,8905.14
1079.64,8900.98
1081.8,8899.84
1083.95,8899.01
1086.11,8899.1
1088.26,8899.85
1090.42,8896.37
1092.57,8888.37
1094.72,8878.58
1096.87,8865.17
1099.02,8850.24
1101.17,8831.12
1103.32,8810.85
1105.47,8790.98
1107.61,8769.37
1109.76,8747.47
1111.9,8729.07
1114.05,8710.72
1116.19,8695.64
1118.33,8682.34
1120.47,8670.58
1122.62,8658.66
1124.76,8648.1
1126.9,8637.8
1129.03,8625.29
1131.17,8616.5
1133.31,8606.47
1135.45,8596.85
1137.58,8586.8
1139.72,8575.86
1141.85,8565.53
1143.98,8553.8
1146.12,8541.74
1148.25,8530.8
1150.38,8519.59
1152.51,8507.59
1154.64,8496.22
1156.77,8485.46
1158.89,8472.88
1161.02,8460.07
1163.15,8446.71
1165.27,8431.76
1167.4,8414.37
1169.52,8395.62
1171.64,8375.86
1173.76,8355.42
1175.88,8333.02
1178.01,8314.48
1180.13,8297.73
1182.24,8284.65
1184.36,8273.27
1186.48,8261.68
1188.6,8253.05
1190.71,8243.19
1192.83,8232.68
1194.94,8223.11
1197.05,8213.9
1199.17,8203.93
1201.28,8194.38
1203.39,8184.55
1205.5,8174.92
1207.61,8166.68
1209.72,8157.94
1211.82,8147.51
1213.93,8136.97
1216.04,8127.33
1218.14,8117.14
1220.25,8108.08
1222.35,8099.26
1224.45,8090.4
1226.56,8083.16
1228.66,8075.68
1230.76,8068.37
1232.86,8062.24
1234.96,8053.71
1237.06,8047.1
1239.15,8040.49
1241.25,8034.97
1243.35,8032.78
1245.44,8035.24
1247.54,8041.34
1249.63,8050.41
1251.72,8058.66
1253.81,8066.44
1255.91,8071.8
1258,8075.48
1260.09,8075.89
1262.17,8075.54
1264.26,8072.93
1266.35,8069.76
1268.44,8064.73
1270.52,8056.11
1272.61,8049.77
1274.69,8042.54
1276.77,8035.1
1278.86,8027.08
1280.94,8018.55
1283.02,8009.5
1285.1,8000.93
1287.18,7993.67
1289.26,7985.94
1291.34,7976.07
1293.41,7966.33
1295.49,7958.16
1297.56,7950.5
1299.64,7942.07
1301.71,7933.78
1303.79,7923.85
1305.86,7914.28
1307.93,7905.37
1310,7895.37
1312.07,7885.36
1314.14,7876.35
1316.21,7866.43
1318.28,7856.76
1320.34,7848.63
1322.41,7837.81
1324.47,7826.94
1326.54,7816.36
1328.6,7801.07
1330.66,7782.61
1332.73,7758.89
1334.79,7732.3
1336.85,7707.51
1338.91,7682.53
1340.97,7658.76
1343.03,7636.83
1345.08,7618.85
1347.14,7601.88
1349.19,7587.59
1351.25,7573.55
1353.3,7560.87
1355.36,7551.1
1357.41,7539.11
1359.46,7527.05
1361.51,7516.15
1363.56,7506.84
1365.61,7497.82
1367.66,7488.68
1369.71,7483.54
1371.76,7478.14
1373.8,7473.72
1375.85,7470.05
1377.89,7465.75
1379.94,7459.93
1381.98,7455.8
1384.02,7453.05
1386.07,7449.5
1388.11,7448.87
1390.15,7449.18
1392.19,7452.63
1394.22,7458.72
1396.26,7464.88
1398.3,7471.33
1400.34,7478.96
1402.37,7484
1404.41,7485.98
1406.44,7487.51
1408.47,7489.45
1410.51,7489.5
1412.54,7490.95
1414.57,7491.96
1416.6,7494.44
1418.63,7495.8
1420.66,7496.73
1422.68,7497.24
1424.71,7498.83
1426.74,7499.04
1428.76,7496.14
1430.79,7493.07
1432.81,7487.6
1434.83,7482.02
1436.85,7474.24
1438.88,7465.89
1440.9,7456.31
1442.92,7447.24
1444.94,7438.04
1446.95,7426.32
1448.97,7414.39
1450.99,7402.15
1453,7386.05
1455.02,7369.46
1457.03,7352.29
1459.05,7335.07
1461.06,7317.76
1463.07,7301.24
1465.08,7283.36
1467.09,7265.57
1469.1,7248.21
1471.11,7226.95
1473.12,7204.46
1475.13,7178.46
1477.13,7150.39
1479.14,7121.49
1481.15,7090.93
1483.15,7059.86
1485.15,7030.31
1487.16,7002.04
1489.16,6975.65
1491.16,6949.07
1493.16,6923.62
1495.16,6897.43
1497.16,6870.86
1499.16,6844.24
1501.15,6817.12
1503.15,6791.22
1505.15,6766
1507.14,6739.84
1509.14,6716.51
1511.13,6696.09
1513.12,6675.5
1515.11,6656.18
1517.1,6636.05
1519.09,6618.36
1521.08,6602.93
1523.07,6588.94
1525.06,6573.2
1527.05,6556.47
1529.03,6542.18
1531.02,6527.89
1533.01,6513.43
1534.99,6499.54
1536.97,6485.07
1538.96,6470.29
1540.94,6456.35
1542.92,6441.33
1544.9,6426.57
1546.88,6413.7
1548.86,6398.81
1550.84,6384.1
1552.81,6371.36
1554.79,6358.42
1556.76,6345.1
1558.74,6332.74
1560.71,6318.82
1562.69,6305.91
1564.66,6292.62
1566.63,6279.29
1568.6,6269.37
1570.57,6256.94
1572.54,6244.07
1574.51,6229.73
1576.48,6215.2
1578.45,6201.36
1580.41,6186.97
1582.38,6172.88
1584.34,6157.07
1586.31,6143.5
1588.27,6130.15
1590.23,6116.09
1592.19,6100.28
1594.16,6086.67
1596.12,6071.53
1598.07,6058.97
1600.03,6045.51
1601.99,6032.12
1603.95,6017.2
1605.9,6004.95
1607.86,5991.95
1609.82,5977.89
1611.77,5964.11
1613.72,5950.79
1615.68,5937.46
1617.63,5923.29
1619.58,5908.7
1621.53,5893.54
1623.48,5880.22
1625.43,5865.38
1627.37,5848.15
1629.32,5833.71
1631.27,5818.68
1633.21,5802.24
1635.16,5786.89
1637.1,5773.15
1639.05,5756.83
1640.99,5744.15
1642.93,5729.68
1644.87,5716.24
1646.81,5700.79
1648.75,5683.78
1650.69,5669.5
1652.63,5654.99
1654.56,5642.15
1656.5,5628.62
1658.44,5613.96
1660.37,5599.62
1662.31,5586.31
1664.24,5572.32
1666.17,5556.81
1668.1,5540.8
1670.03,5524.77
1671.96,5509.54
1673.89,5492.93
1675.82,5478.84
1677.75,5464.11
1679.68,5449.67
1681.6,5435.1
1683.53,5421.39
1685.46,5405.65
1687.38,5392.68
1689.3,5378.74
1691.23,5364.2
1693.15,5349.57
1695.07,5335.86
1696.99,5322.32
1698.91,5309.22
1700.83,5295.44
1702.75,5280.29
1704.66,5265.43
1706.58,5251.45
1708.5,5235.67
1710.41,5220.87
1712.32,5206.98
1714.24,5191.83
1716.15,5176.32
1718.06,5161.68
1719.97,5145.55
1721.88,5131.07
1723.79,5116.71
1725.7,5104.41
1727.61,5091.93
1729.52,5077.9
1731.43,5063.89
1733.33,5049.74
1735.24,5036.18
1737.14,5023.25
1739.04,5009.87
1740.95,4996.08
1742.85,4982.7
1744.75,4968.51
1746.65,4955.56
1748.55,4941.14
1750.45,4927.01
1752.35,4913.59
1754.25,4898.31
1756.14,4883.54
1758.04,4867.93
1759.93,4851.37
1761.83,4834.85
1763.72,4820.65
1765.61,4805.11
1767.51,4789.58
1769.4,4776.09
1771.29,4761.67
1773.18,4745.35
1775.07,4731.67
1776.96,4717.95
1778.84,4705.13
1780.73,4692.97
1782.62,4680.57
1784.5,4666.77
1786.39,4654.72
1788.27,4641.59
1790.15,4628.2
1792.04,4615.15
1793.92,4600.48
1795.8,4586.62
1797.68,4571.7
1799.56,4556.99
1801.44,4542.86
1803.32,4527.72
1805.19,4512.44
1807.07,4496.93
1808.94,4482.64
1810.82,4467.81
1812.69,4453.19
1814.57,4438.42
1816.44,4425.13
1818.31,4411.59
1820.18,4398.04
1822.05,4386.43
1823.92,4372.63
1825.79,4360.8
1827.66,4348.76
1829.53,4335.71
1831.39,4324.3
1833.26,4311.98
1835.12,4299.1
1836.99,4286.44
1838.85,4273.43
1840.71,4258.15
1842.58,4243.58
1844.44,4229.15
1846.3,4213.34
1848.16,4198.73
1850.02,4185.24
1851.87,4171.32
1853.73,4156.41
1855.59,4141.04
1857.44,4126.74
1859.3,4113.42
1861.15,4099.97
1863.01,4087
1864.86,4073.41
1866.71,4060.64
1868.56,4047.42
1870.41,4034.98
1872.26,4023
1874.11,4010.01
1875.96,3997.18
1877.81,3983.24
1879.66,3969.55
1881.5,3954.93
1883.35,3941.95
1885.19,3927.22
1887.04,3913.5
1888.88,3900.72
1890.72,3887.47
1892.56,3873.86
1894.41,3860.88
1896.25,3847.68
1898.09,3833.34
1899.92,3820.72
1901.76,3807.08
1903.6,3794.55
1905.44,3781.04
1907.27,3767.49
1909.11,3753.65
1910.94,3740.99
1912.77,3728.24
1914.61,3716.36
1916.44,3704.86
1918.27,3692.7
1920.1,3679.85
1921.93,3667.36
1923.76,3655.46
1925.59,3642.83
1927.41,3629.54
1929.24,3617.3
1931.07,3605.8
1932.89,3592.86
1934.72,3579.77
1936.54,3566.98
1938.36,3552.85
1940.19,3539.8
1942.01,3527.22
1943.83,3514.85
1945.65,3502.6
1947.47,3489.83
1949.29,3478.43
1951.1,3466.42
1952.92,3454.47
1954.74,3443.26
1956.55,3431.85
1958.37,3419.8
1960.18,3408.41
1961.99,3396.46
1963.81,3383.87
1965.62,3372.18
1967.43,3359.93
1969.24,3347.47
1971.05,3335.71
1972.86,3323.4
1974.67,3310.39
1976.47,3297.49
1978.28,3284.37
1980.09,3272.98
1981.89,3260.69
1983.7,3249.79
1985.5,3238.16
1987.3,3226.63
1989.11,3216.13
1990.91,3206.03
1992.71,3195.65
1994.51,3185.41
1996.31,3175.03
1998.11,3165.55
1999.9,3155
2001.7,3143.88
2003.5,3131.83
2005.29,3120.65
2007.09,3110.19
2008.88,3099.08
2010.67,3087.74
2012.47,3075.81
2014.26,3064.1
2016.05,3052.28
2017.84,3040.36
2019.63,3028.81
2021.42,3017.62
2023.21,3007.11
2024.99,2996.53
2026.78,2986.62
2028.57,2976.33
2030.35,2967.8
2032.14,2958.5
2033.92,2949.72
2035.7,2940.6
2037.48,2931.54
2039.27,2921.5
2041.05,2912.62
2042.83,2903.88
2044.61,2894
2046.38,2883.81
2048.16,2874
2049.94,2863.51
2051.71,2854.28
2053.49,2844.3
2055.27,2834.04
2057.04,2823.65
2058.81,2814.65
2060.59,2805.41
2062.36,2794.23
2064.13,2784.48
2065.9,2774.52
2067.67,2766.02
2069.44,2757.33
2071.21,2747.11
2072.97,2738.85
2074.74,2730.12
2076.51,2722.33
2078.27,2713.5
2080.04,2703.8
2081.8,2695.2
2083.56,2688.02
2085.32,2679.38
2087.09,2671.56
2088.85,2662.92
2090.61,2655.34
2092.37,2646.94
2094.12,2638.24
2095.88,2628.58
2097.64,2619.19
2099.4,2609.94
2101.15,2601.34
2102.91,2592.45
2104.66,2582.84
2106.41,2573.69
2108.17,2565.28
2109.92,2556.68
2111.67,2549.45
2113.42,2541.02
2115.17,2532.36
2116.92,2524.07
2118.67,2516.72
2120.42,2508.91
2122.16,2502.02
2123.91,2494.02
2125.65,2485.7
2127.4,2478.21
2129.14,2469.97
2130.89,2460.02
2132.63,2451.55
2134.37,2443.86
2136.11,2435.3
2137.85,2426.56
2139.59,2417.63
2141.33,2409.04
2143.07,2400.63
2144.81,2391.7
2146.54,2382.54
2148.28,2374.87
2150.01,2366.35
2151.75,2358.67
2153.48,2351.37
2155.22,2342.78
2156.95,2336.31
2158.68,2328.59
2160.41,2321.14
2162.14,2313.25
2163.87,2304.96
2165.6,2297.16
2167.33,2289.41
2169.05,2281.39
2170.78,2272.57
2172.51,2264.1
2174.23,2255.02
2175.96,2247.22
2177.68,2238.67
2179.4,2228.86
2181.12,2219.85
2182.85,2210.65
2184.57,2201.64
2186.29,2192.2
2188.01,2183.76
2189.72,2174.98
2191.44,2167.31
2193.16,2159.26
2194.87,2150.67
2196.59,2143.27
2198.31,2135.12
2200.02,2127.03
2201.73,2119.72
2203.45,2111.84
2205.16,2104.34
2206.87,2096.33
2208.58,2088.3
2210.29,2080.26
2212,2072.05
2213.71,2063.67
2215.41,2054.98
2217.12,2047.68
2218.83,2039.04
2220.53,2030.85
2222.24,2022.01
2223.94,2012.37
2225.64,2004.66
2227.35,1996.11
2229.05,1987.37
2230.75,1979.47
2232.45,1970.43
2234.15,1963.07
2235.85,1955.63
2237.55,1947.67
2239.24,1940.36
2240.94,1933.53
2242.64,1925.51
2244.33,1918.46
2246.03,1911.52
2247.72,1904.74
2249.41,1897.98
2251.11,1890.66
2252.8,1883.09
2254.49,1875.99
2256.18,1869.54
2257.87,1862.65
2259.56,1855.65
2261.25,1848.61
2262.93,1841.28
2264.62,1833.72
2266.31,1826.45
2267.99,1819.44
2269.68,1812.64
2271.36,1805.93
2273.04,1798.67
2274.73,1791.07
2276.41,1784.24
2278.09,1779.01
2279.77,1771.48
2281.45,1764.7
2283.13,1758.15
2284.8,1752.32
2286.48,1746.18
2288.16,1739.29
2289.83,1731.72
2291.51,1725.37
2293.18,1719.8
2294.86,1713.27
2296.53,1706.85
2298.2,1701.19
2299.88,1694.92
2301.55,1688.59
2303.22,1682.4
2304.89,1675.56
2306.55,1670.24
2308.22,1664.47
2309.89,1657.59
2311.56,1652
2313.22,1645.43
2314.89,1639.03
2316.55,1632.44
2318.22,1626.99
2319.88,1621.48
2321.54,1615.89
2323.2,1609.59
2324.86,1603.44
2326.52,1598.49
2328.18,1592.76
2329.84,1586.48
2331.5,1580.36
2333.16,1575.28
2334.81,1569.82
2336.47,1565.11
2338.12,1558.63
2339.78,1552.3
2341.43,1546.63
2343.09,1542.02
2344.74,1536
2346.39,1528.28
2348.04,1523.8
2349.69,1518.2
2351.34,1511.99
2352.99,1507.06
2354.64,1501.63
2356.28,1496.66
2357.93,1492.4
2359.58,1487.02
2361.22,1480.08
2362.87,1473.86
2364.51,1468.61
2366.15,1462.28
2367.8,1455.81
2369.44,1450.95
2371.08,1445.04
2372.72,1439.77
2374.36,1433.92
2376,1428.11
2377.64,1422.41
2379.27,1415.97
2380.91,1410.29
2382.55,1405.05
2384.18,1399.99
2385.82,1394.33
2387.45,1389.23
2389.08,1383.56
2390.71,1379.15
2392.35,1373.71
2393.98,1368.18
2395.61,1362.66
2397.24,1357.5
2398.87,1352.74
2400.49,1346.76
2402.12,1341.22
2403.75,1335.67
2405.37,1331.51
2407,1326.24
2408.62,1321.53
2410.25,1314.97
2411.87,1309.69
2413.49,1305.41
2415.12,1300.12
2416.74,1294.35
2418.36,1289.67
2419.98,1283.59
2421.6,1277.68
2423.21,1272.46
2424.83,1267.55
2426.45,1262.28
2428.07,1257.14
2429.68,1252.16
2431.3,1247.14
2432.91,1242.37
2434.52,1236.76
2436.14,1231.46
2437.75,1226.71
2439.36,1221.76
2440.97,1216.46
2442.58,1211.22
2444.19,1206.85
2445.8,1202.64
2447.4,1197.76
2449.01,1191.81
2450.62,1186.59
2452.22,1181.3
2453.83,1176.54
2455.43,1171.78
2457.04,1165.06
2458.64,1159.55
2460.24,1153.2
2461.84,1148.61
2463.44,1143.98
2465.04,1138.35
2466.64,1133.12
2468.24,1128.31
2469.84,1122.66
2471.44,1117.98
2473.03,1113.99
2474.63,1108.63
2476.22,1104.33
2477.82,1099.74
2479.41,1094.75
2481,1089.75
2482.6,1085.98
2484.19,1080.67
2485.78,1076.9
2487.37,1072.37
2488.96,1067.34
2490.55,1062.47
2492.14,1057.97
2493.72,1054.02
2495.31,1048.77
2496.9,1042.32
2498.48,1038.49
2500.07,1035.42
2501.65,1030.34
2503.23,1025.82
2504.82,1019.45
2506.4,1015.32
2507.98,1011.07
2509.56,1006.81
2511.14,1002.15
2512.72,997.59
2514.3,993.31
2515.87,989.64
2517.45,985.51
2519.03,980.98
2520.6,977.19
2522.18,975.11
2523.75,972.06
2525.32,968.36
2526.9,964.47
2528.47,960.07
2530.04,955.8
2531.61,952.51
2533.18,947.76
2534.75,943.88
2536.32,939.37
2537.89,935.22
2539.45,931.67
2541.02,927.41
2542.59,923.05
2544.15,919.54
2545.72,915.63
2547.28,911.15
2548.84,907.95
2550.41,903.86
2551.97,900.48
2553.53,897.74
2555.09,894.64
2556.65,891.46
2558.21,888.15
2559.76,885.46
2561.32,883.64
2562.88,880.03
2564.43,876.51
2565.99,873.79
2567.54,870.37
2569.1,869.23
2570.65,866.56
2572.2,863.18
2573.76,859.82
2575.31,856.61
2576.86,853.13
2578.41,850.23
2579.96,847.14
2581.51,844.04
2583.05,840.79
2584.6,836.42
2586.15,832.6
2587.69,829.11
2589.24,825.71
2590.78,822.73
2592.33,818.99
2593.87,816.34
2595.41,813.67
2596.95,810.56
2598.49,807
2600.03,803.55
2601.57,800.31
2603.11,797.11
2604.65,793.98
2606.19,791.41
2607.72,788.61
2609.26,785.98
2610.8,782.72
2612.33,779.94
2613.86,775.48
2615.4,772.62
2616.93,768.98
2618.46,764.88
2619.99,760.83
2621.52,757.15
2623.05,753.69
2624.58,751.46
2626.11,747.93
2627.64,744.24
2629.17,740.69
2630.69,736.93
2632.22,733.52
2633.74,729.71
2635.27,726.51
2636.79,723.08
2638.32,720.81
2639.84,718.08
2641.36,714.92
2642.88,711.5
2644.4,708.33
2645.92,705.27
2647.44,703.01
2648.96,698.87
2650.47,695.93
2651.99,693.7
2653.51,690.76
2655.02,688.72
2656.54,685.86
2658.05,682.39
2659.57,680.25
2661.08,677.85
2662.59,675.45
2664.1,672.26
2665.61,669.19
2667.12,666.86
2668.63,664.8
2670.14,662.13
2671.65,658.67
2673.16,656.56
2674.66,654.52
2676.17,653.6
2677.67,651.23
2679.18,648.54
2680.68,647.04
2682.18,646.82
2683.69,646.25
2685.19,644.52
2686.69,641.5
2688.19,640.26
2689.69,639.34
2691.19,638.72
2692.69,637.84
2694.19,636.27
2695.68,634.39
2697.18,633
2698.68,631.84
2700.17,629.95
2701.66,628.83
2703.16,628.2
2704.65,625.72
2706.14,623.92
2707.64,622.46
2709.13,620.57
2710.62,619.46
2712.11,617.7
2713.59,615.01
2715.08,612.13
2716.57,609.98
2718.06,607.92
2719.54,606.46
2721.03,603.79
2722.51,600.31
2724,597.92
2725.48,595.66
2726.96,593.48
2728.45,591.12
2729.93,587.49
2731.41,584.25
2732.89,582.25
2734.37,579.53
2735.85,576.11
2737.33,572.75
2738.8,569.53
2740.28,567.07
2741.76,563.35
2743.23,559.74
2744.71,555.59
2746.18,551.74
2747.65,548.39
2749.13,544.86
2750.6,540.7
2752.07,536.95
2753.54,533.52
2755.01,529.84
2756.48,526.3
2757.95,521.81
2759.42,517.81
2760.88,514.47
2762.35,511.05
2763.82,506.99
2765.28,503.99
2766.75,501.14
2768.21,497.36
2769.67,494.22
2771.14,491.49
2772.6,488.65
2774.06,486.05
2775.52,483.51
2776.98,480.54
2778.44,478.11
2779.9,475.59
2781.35,473.9
2782.81,473.13
2784.27,471.61
2785.72,469.86
2787.18,467.15
2788.63,464.99
2790.09,464.13
2791.54,463.29
2792.99,462.74
2794.45,461.97
2795.9,462.11
2797.35,462.52
2798.8,462.64
2800.25,464.17
2801.69,466.45
2803.14,468.39
2804.59,472.31
2806.04,477.98
2807.48,484.27
2808.93,490.93
2810.37,498.46
2811.81,507
2813.26,516.27
2814.7,525.88
2816.14,537.33
2817.58,550.28
2819.02,562.5
2820.46,574.92
2821.9,587.2
2823.34,599.24
2824.78,612.47
2826.22,623.99
2827.65,635.62
2829.09,647.16
2830.52,658.33
2831.96,668.97
2833.39,679.92
2834.82,690.97
2836.26,702.29
2837.69,713.8
2839.12,723.53
2840.55,734
2841.98,745.33
2843.41,756.98
2844.84,770.15
2846.27,784.47
2847.69,799.35
2849.12,814.31
2850.55,828.78
2851.97,843.36
2853.39,858.38
2854.82,871.72
2856.24,884.66
2857.66,896.84
2859.09,906.5
2860.51,915.66
2861.93,923.91
2863.35,929.77
2864.77,934.65
2866.19,937.27
2867.6,938.52
2869.02,938.46
2870.44,936.02
2871.85,933.37
2873.27,927.69
2874.68,921.93
2876.1,914.91
2877.51,908.11
2878.92,899.89
2880.33,892.15
2881.74,884.07
2883.16,874.64
2884.57,866.07
2885.97,857.17
2887.38,848.93
2888.79,839.54
2890.2,831.67
2891.6,823.27
2893.01,813.94
2894.42,804.83
2895.82,794.82
2897.22,785.97
2898.63,775.77
2900.03,765.34
2901.43,753.83
2902.83,742.03
2904.23,728.85
2905.63,714.21
2907.03,698.86
2908.43,683.5
2909.83,667.21
2911.23,650.51
2912.62,634.28
2914.02,618.57
2915.42,603.8
2916.81,589.79
2918.2,575.75
2919.6,561.93
2920.99,548.7
2922.38,536.06
2923.77,523.11
2925.16,511.02
2926.55,499.98
2927.94,489.47
2929.33,479.01
2930.72,470.76
2932.11,461.96
2933.5,453.29
2934.88,444.48
2936.27,435.41
2937.65,426.08
2939.04,416.9
2940.42,408.78
2941.8,401.44
2943.18,394.45
2944.57,386.11
2945.95,379.08
2947.33,371.29
2948.71,364.2
2950.09,357.36
2951.46,350.21
2952.84,342.64
2954.22,335.91
2955.6,329.33
2956.97,322.91
2958.35,316.93
2959.72,310.09
2961.09,304.47
2962.47,298.88
2963.84,292.25
2965.21,286.33
2966.58,280.45
2967.95,275.41
2969.32,271.02
2970.69,265.97
2972.06,261.69
2973.43,257.24
2974.8,252.38
2976.16,248.98
2977.53,245.32
2978.89,240.09
2980.26,236.81
2981.62,233.42
2982.98,229.68
2984.35,226.48
2985.71,223.41
2987.07,220.29
2988.43,217.24
2989.79,213.58
2991.15,209.76
2992.51,206.83
2993.87,204.07
2995.22,202.41
2996.58,200.46
2997.94,197.16
2999.29,194.45
3000.65,192.91
3002,190.51
3003.36,188.09
3004.71,185.47
3006.06,183.02
3007.41,180.56
3008.76,179.19
3010.11,177.6
3011.46,176.13
3012.81,174.02
3014.16,172.03
3015.51,170.61
3016.85,168.17
3018.2,166.5
3019.55,165.46
3020.89,164.14
3022.24,163.41
3023.58,161.41
3024.92,159.25
3026.27,157.79
3027.61,155.79
3028.95,154.63
3030.29,153.54
3031.63,150.47
3032.97,148.79
3034.31,147.71
3035.65,146.69
3036.98,145.33
3038.32,143.66
3039.66,141.54
3040.99,139.15
3042.33,137.61
3043.66,136.02
3044.99,134.72
3046.33,133.49
3047.66,132.05
3048.99,131.08
3050.32,129.26
3051.65,127.17
3052.98,126.32
3054.31,125.06
3055.64,123.33
3056.96,121.69
3058.29,120.01
3059.62,119.84
3060.94,119.31
3062.27,118.7
3063.59,117.65
3064.92,115.93
3066.24,114.36
3067.56,112.92
3068.88,111.81
3070.21,110.8
3071.53,110.26
3072.85,108.85
3074.17,108.11
3075.48,106.75
3076.8,104.59
3078.12,103.82
3079.44,102.98
3080.75,101.5
3082.07,100.03
3083.38,98.05
3084.7,95.8
3086.01,95.68
3087.32,95.3
3088.64,94.42
3089.95,93.58
3091.26,92.27
3092.57,91.14
3093.88,90.87
3095.19,89.72
3096.5,88.7
3097.8,86.54
3099.11,85.17
3100.42,85.77
3101.72,85.9
3103.03,85.02
3104.33,84.08
3105.64,83.23
3106.94,81.66
3108.24,80.49
3109.54,79.54
3110.84,78.91
3112.15,77.98
3113.45,76.51
3114.75,75.79
3116.04,74.7
3117.34,73.61
3118.64,72.66
3119.94,71.71
3121.23,71.28
3122.53,69.99
3123.82,68.2
3125.12,66.57
3126.41,65.69
3127.7,64.72
3129,64.23
3130.29,63.33
3131.58,62.41
3132.87,61.63
3134.16,60.86
3135.45,59.9
3136.74,58.87
3138.03,59.07
3139.31,57.6
3140.6,56.06
3141.89,55.07
3143.17,53.6
3144.46,52.71
3145.74,51.8
3147.02,51.23
3148.31,50.53
3149.59,49.47
3150.87,49.5
3152.15,49.48
3153.43,47.5
3154.71,46.4
3155.99,45.5
3157.27,44.82
3158.55,44.8
3159.82,44.76
3161.1,43.93
3162.38,43.1
3163.65,42.47
3164.93,41.63
3166.2,40.66
3167.47,39.62
3168.75,38.6
3170.02,38.37
3171.29,37.79
3172.56,37.56
3173.83,36.62
3175.1,35.71
3176.37,34.5
3177.64,33.78
3178.91,32.64
3180.17,32.11
3181.44,31.1
3182.7,31.68
3183.97,31.27
3185.23,30.13
3186.5,29.01
3187.76,28.54
3189.02,27.96
3190.29,27.49
3191.55,32.33
3192.81,34.33
3194.07,17.67
3195.33,40.33
3196.59,20
3197.85,32.67
3199.1,24.33
3200.36,9.33
3201.62,2.67
3202.87,12.33
3204.13,5.67
3205.38,39.33
3206.63,14.67
3207.89,43.67
3209.14,29.33
3210.39,7
3211.64,6
3212.89,21.33
3214.14,4
3215.39,30.67
