Wavenumber [cm-1],Raman Intensity
160.07,18160.67
162.55,18376.33
165.03,18394.67
167.5,18448
169.97,18687
172.45,18684
174.92,18752.33
177.39,18895
179.86,18937.33
182.33,19054.67
184.8,19114.67
187.27,19230.33
189.74,19375.33
192.2,19495.67
194.67,19438.33
197.14,19441.67
199.6,19368.67
202.06,19416.67
204.53,19416.33
206.99,19355
209.45,19106.24
211.91,19127.21
214.37,19141.54
216.83,19155.85
219.29,19168.14
221.74,19173.69
224.2,19179.36
226.65,19181.75
229.11,19179.92
231.56,19176.75
234.02,19169.63
236.47,19159.61
238.92,19144.33
241.37,19127.35
243.82,19104.89
246.27,19082.79
248.72,19059.9
251.16,19038.12
253.61,19015.46
256.06,18990.21
258.5,18965.47
260.95,18940.98
263.39,18916.75
265.83,18892.87
268.27,18869.15
270.71,18846.46
273.15,18824.89
275.59,18802.52
278.03,18780.85
280.47,18757.64
282.91,18735.33
285.34,18711.12
287.78,18686.39
290.21,18659.33
292.64,18631.5
295.08,18601.45
297.51,18573.3
299.94,18544.93
302.37,18517.2
304.8,18489.97
307.23,18461.89
309.66,18433.64
312.08,18406.02
314.51,18378.75
316.94,18349.92
319.36,18322.44
321.78,18295.24
324.21,18269.24
326.63,18242.7
329.05,18218.15
331.47,18192.88
333.89,18167.85
336.31,18146.15
338.73,18128.11
341.15,18105.46
343.56,18086.56
345.98,18068.69
348.39,18050.83
350.81,18033.86
353.22,18014.73
355.63,17997.88
358.04,17980.97
360.46,17966.1
362.87,17950.65
365.27,17934.56
367.68,17918.3
370.09,17902.41
372.5,17885.27
374.9,17867.18
377.31,17848.86
379.71,17829.96
382.12,17810.25
384.52,17790.9
386.92,17772.91
389.32,17756.75
391.72,17740.78
394.12,17727.22
396.52,17712.37
398.92,17696.38
401.32,17680.48
403.71,17666.63
406.11,17654.27
408.5,17641.35
410.9,17628.07
413.29,17615.63
415.68,17602.95
418.07,17588.32
420.46,17575.02
422.85,17558.64
425.24,17544.85
427.63,17529.43
430.02,17512.31
432.4,17497.82
434.79,17482.28
437.17,17465.41
439.56,17450.91
441.94,17435.25
444.32,17417.34
446.71,17400.24
449.09,17383.54
451.47,17366.95
453.85,17351.22
456.22,17334.6
458.6,17318.77
460.98,17302.93
463.35,17286.11
465.73,17270.06
468.1,17255.16
470.48,17241.11
472.85,17225.11
475.22,17208.45
477.59,17192.2
479.96,17175.2
482.33,17158.6
484.7,17140.9
487.07,17121.73
489.44,17103.59
491.8,17084.28
494.17,17064.22
496.53,17043.17
498.9,17022.53
501.26,17001.59
503.62,16978.45
505.98,16957.58
508.34,16938.11
510.7,16918.52
513.06,16898.85
515.42,16882.2
517.78,16860.57
520.14,16841.77
522.49,16820.7
524.85,16800.02
527.2,16780.54
529.55,16761.32
531.91,16739.74
534.26,16717.44
536.61,16694.73
538.96,16670.82
541.31,16647.46
543.66,16623.93
546,16599.11
548.35,16574.81
550.7,16549.36
553.04,16525.9
555.39,16499.6
557.73,16474.8
560.07,16449.99
562.41,16424.93
564.76,16399.98
567.1,16374.96
569.44,16353.14
571.77,16332.1
574.11,16308.18
576.45,16287.82
578.79,16265.94
581.12,16244.33
583.46,16223.76
585.79,16200.93
588.12,16182.34
590.46,16163.13
592.79,16145.39
595.12,16128.44
597.45,16109.58
599.78,16094.27
602.1,16075.63
604.43,16053.43
606.76,16031.41
609.08,16010.11
611.41,15987.85
613.73,15968.07
616.06,15946.14
618.38,15925.58
620.7,15903.88
623.02,15883.6
625.34,15862.51
627.66,15840.92
629.98,15819.97
632.3,15799.37
634.61,15781.02
636.93,15762.8
639.25,15744.95
641.56,15727.28
643.87,15709.79
646.19,15691.84
648.5,15674.06
650.81,15657.8
653.12,15640.78
655.43,15623.45
657.74,15606.89
660.05,15590.61
662.35,15572.8
664.66,15554.83
666.97,15536.55
669.27,15520.88
671.57,15502.67
673.88,15484.95
676.18,15466.8
678.48,15449.63
680.78,15432.93
683.08,15411.69
685.38,15392.57
687.68,15371.98
689.98,15348.99
692.27,15327.49
694.57,15304.68
696.86,15283.38
699.16,15265.02
701.45,15246.58
703.74,15230.66
706.04,15213.45
708.33,15196.66
710.62,15181.29
712.91,15166.04
715.2,15151.82
717.48,15138.54
719.77,15123.49
722.06,15107.33
724.34,15091.51
726.63,15075.74
728.91,15057.68
731.19,15041.59
733.48,15025.66
735.76,15008.96
738.04,14991.5
740.32,14975.33
742.6,14957.47
744.87,14937.55
747.15,14920.07
749.43,14901.47
751.7,14883.67
753.98,14863.12
756.25,14844.31
758.53,14825.21
760.8,14807.01
763.07,14788.85
765.34,14769.96
767.61,14751.24
769.88,14736.84
772.15,14721.38
774.42,14706.76
776.68,14696.33
778.95,14682.98
781.21,14672.05
783.48,14664.31
785.74,14658.91
788,14650.59
790.27,14641.13
792.53,14632.89
794.79,14624.48
797.05,14614.04
799.31,14605.64
801.56,14600.63
803.82,14593.57
806.08,14586.24
808.33,14578.37
810.59,14568.95
812.84,14560.26
815.1,14553.21
817.35,14545.79
819.6,14537.93
821.85,14530.24
824.1,14522.04
826.35,14511.67
828.6,14502.02
830.84,14495.95
833.09,14489.82
835.34,14485.7
837.58,14481.71
839.83,14473.94
842.07,14467.74
844.31,14459.65
846.55,14451.66
848.8,14443.76
851.04,14435.08
853.27,14426.33
855.51,14417.46
857.75,14407.64
859.99,14398.77
862.22,14387.23
864.46,14376.02
866.69,14363.58
868.93,14350.28
871.16,14339.72
873.39,14326.24
875.63,14312.24
877.86,14296.37
880.09,14281.35
882.31,14269.08
884.54,14255.05
886.77,14241.52
889,14228.67
891.22,14213.07
893.45,14194.05
895.67,14176.89
897.9,14160.11
900.12,14143.72
902.34,14127.74
904.56,14110.93
906.78,14093.96
909,14077.8
911.22,14061.54
913.44,14044.97
915.65,14028.59
917.87,14013.34
920.08,13998.17
922.3,13980.34
924.51,13963.12
926.73,13943.88
928.94,13924.39
931.15,13906.58
933.36,13890.3
935.57,13876.2
937.78,13862.5
939.99,13851.1
942.19,13839.29
944.4,13826.7
946.61,13814.89
948.81,13805.71
951.02,13796.95
953.22,13790.91
955.42,13787.31
957.62,13787.21
959.82,13785.76
962.02,13780.32
964.22,13773.69
966.42,13761.9
968.62,13747.19
970.82,13733.19
973.01,13717.41
975.21,13703
977.4,13685.89
979.6,13668.47
981.79,13652.32
983.98,13637.6
986.17,13623.39
988.36,13608.67
990.55,13593.71
992.74,13579.83
994.93,13565.66
997.12,13552.05
999.3,13536.98
1001.49,13522.13
1003.67,13507.87
1005.86,13493.62
1008.04,13479.2
1010.22,13464.37
1012.41,13449.93
1014.59,13433.77
1016.77,13418.33
1018.95,13405.02
1021.12,13391.45
1023.3,13376.83
1025.48,13359.09
1027.66,13342.88
1029.83,13325.24
1032.01,13308.28
1034.18,13289.27
1036.35,13269.01
1038.52,13247.65
1040.7,13223.99
1042.87,13197.7
1045.04,13169.33
1047.2,13136.46
1049.37,13103.98
1051.54,13074.77
1053.71,13047.51
1055.87,13022.69
1058.04,13001.61
1060.2,12979.48
1062.36,12958.38
1064.53,12935.89
1066.69,12914.09
1068.85,12893.18
1071.01,12872.5
1073.17,12850.14
1075.33,12827.95
1077.49,12807.88
1079.64,12786.08
1081.8,12764.17
1083.95,12742.6
1086.11,12721.32
1088.26,12698.12
1090.42,12673.87
1092.57,12648.28
1094.72,12622.07
1096.87,12596.59
1099.02,12570.95
1101.17,12545.88
1103.32,12521.67
1105.47,12499.02
1107.61,12475.29
1109.76,12452.1
1111.9,12428.67
1114.05,12407.06
1116.19,12384.91
1118.33,12361.94
1120.47,12338.62
1122.62,12317.72
1124.76,12297.26
1126.9,12278.11
1129.03,12259.47
1131.17,12240.59
1133.31,12220.92
1135.45,12202.91
1137.58,12184.48
1139.72,12164.74
1141.85,12148.08
1143.98,12132.15
1146.12,12115.16
1148.25,12099.66
1150.38,12084.6
1152.51,12070.41
1154.64,12059.26
1156.77,12046.38
1158.89,12033.36
1161.02,12023.44
1163.15,12011.9
1165.27,11998.76
1167.4,11987.02
1169.52,11976.37
1171.64,11965.26
1173.76,11954.47
1175.88,11944.92
1178.01,11936.96
1180.13,11931.16
1182.24,11926.76
1184.36,11922.35
1186.48,11919.43
1188.6,11917.15
1190.71,11915.92
1192.83,11912.94
1194.94,11912.52
1197.05,11913.27
1199.17,11913.24
1201.28,11913.54
1203.39,11915.67
1205.5,11916.1
1207.61,11916.24
1209.72,11913.69
1211.82,11912.59
1213.93,11909.51
1216.04,11905.25
1218.14,11900.48
1220.25,11896.41
1222.35,11891.73
1224.45,11886.25
1226.56,11882.2
1228.66,11875.83
1230.76,11869.18
1232.86,11861.88
1234.96,11854.61
1237.06,11846.16
1239.15,11837.26
1241.25,11825.85
1243.35,11813.89
1245.44,11802.07
1247.54,11790
1249.63,11777.36
1251.72,11763.67
1253.81,11750.19
1255.91,11736.07
1258,11721.93
1260.09,11707.67
1262.17,11693.67
1264.26,11681.6
1266.35,11668.74
1268.44,11655.37
1270.52,11641.79
1272.61,11627.84
1274.69,11612.46
1276.77,11594.22
1278.86,11578.33
1280.94,11559.62
1283.02,11541.14
1285.1,11521.51
1287.18,11501.39
1289.26,11481.14
1291.34,11460.59
1293.41,11440.72
1295.49,11423.61
1297.56,11404.44
1299.64,11384.64
1301.71,11365.28
1303.79,11344.69
1305.86,11324.29
1307.93,11301.85
1310,11278.24
1312.07,11253.38
1314.14,11227.35
1316.21,11201.49
1318.28,11174.78
1320.34,11146.08
1322.41,11116.4
1324.47,11084.85
1326.54,11055.89
1328.6,11026.52
1330.66,10993.58
1332.73,10960.08
1334.79,10926.88
1336.85,10895.71
1338.91,10864.5
1340.97,10831.85
1343.03,10798.45
1345.08,10767.38
1347.14,10736.07
1349.19,10703.21
1351.25,10670.69
1353.3,10636.83
1355.36,10603.28
1357.41,10569.85
1359.46,10534.11
1361.51,10501.12
1363.56,10468.01
1365.61,10434.54
1367.66,10399.39
1369.71,10367.42
1371.76,10335.63
1373.8,10302.24
1375.85,10271.51
1377.89,10240.85
1379.94,10211.24
1381.98,10182.7
1384.02,10156.78
1386.07,10132.69
1388.11,10110.89
1390.15,10090.93
1392.19,10075.88
1394.22,10064.95
1396.26,10057.04
1398.3,10051.78
1400.34,10052
1402.37,10054.8
1404.41,10059.59
1406.44,10069.5
1408.47,10078.32
1410.51,10086.54
1412.54,10093.13
1414.57,10103.3
1416.6,10112.54
1418.63,10119.56
1420.66,10124.51
1422.68,10127.59
1424.71,10128.65
1426.74,10128.14
1428.76,10122.89
1430.79,10116.03
1432.81,10105.7
1434.83,10092.25
1436.85,10077.37
1438.88,10060.35
1440.9,10039.08
1442.92,10019.89
1444.94,9997.1
1446.95,9970
1448.97,9943.99
1450.99,9918.54
1453,9889.89
1455.02,9861.37
1457.03,9832.32
1459.05,9801.53
1461.06,9770.77
1463.07,9737.63
1465.08,9703.94
1467.09,9669.12
1469.1,9631.15
1471.11,9593.2
1473.12,9553.87
1475.13,9511.03
1477.13,9465.82
1479.14,9417.45
1481.15,9367.02
1483.15,9312.25
1485.15,9255.18
1487.16,9198.55
1489.16,9138.69
1491.16,9081.28
1493.16,9022.75
1495.16,8968.8
1497.16,8913.34
1499.16,8858.09
1501.15,8806.43
1503.15,8756.71
1505.15,8708.54
1507.14,8663.57
1509.14,8620.39
1511.13,8581.3
1513.12,8544.35
1515.11,8510.36
1517.1,8477.96
1519.09,8447.29
1521.08,8416.93
1523.07,8390.63
1525.06,8365.23
1527.05,8338.62
1529.03,8317.24
1531.02,8294.33
1533.01,8272.46
1534.99,8252.47
1536.97,8232.5
1538.96,8211.78
1540.94,8193.45
1542.92,8174.4
1544.9,8157.38
1546.88,8140.51
1548.86,8123.42
1550.84,8110.12
1552.81,8095.42
1554.79,8079.23
1556.76,8066.08
1558.74,8054.89
1560.71,8043.88
1562.69,8035.4
1564.66,8026.3
1566.63,8017.85
1568.6,8009.98
1570.57,8001.37
1572.54,7992.67
1574.51,7985.06
1576.48,7974.56
1578.45,7964.62
1580.41,7954.07
1582.38,7942.77
1584.34,7930.87
1586.31,7918.62
1588.27,7905.85
1590.23,7894.81
1592.19,7882.85
1594.16,7871.88
1596.12,7862.17
1598.07,7853.66
1600.03,7845.33
1601.99,7839.95
1603.95,7835.29
1605.9,7830.81
1607.86,7830.84
1609.82,7828.2
1611.77,7828.32
1613.72,7827.92
1615.68,7827.7
1617.63,7827.5
1619.58,7828.6
1621.53,7827.59
1623.48,7829.73
1625.43,7829.37
1627.37,7830.46
1629.32,7832.2
1631.27,7830.3
1633.21,7828.37
1635.16,7826.47
1637.1,7820.98
1639.05,7812.67
1640.99,7803.64
1642.93,7792.05
1644.87,7778.75
1646.81,7763.95
1648.75,7747.06
1650.69,7728.29
1652.63,7708.47
1654.56,7686.16
1656.5,7663.29
1658.44,7639.11
1660.37,7614.43
1662.31,7588.49
1664.24,7560.71
1666.17,7533.34
1668.1,7504.13
1670.03,7474.67
1671.96,7445.04
1673.89,7413.67
1675.82,7382.18
1677.75,7349.57
1679.68,7317.42
1681.6,7283.88
1683.53,7248.98
1685.46,7213.41
1687.38,7177.25
1689.3,7141.5
1691.23,7103.67
1693.15,7064.3
1695.07,7024.76
1696.99,6984
1698.91,6941.24
1700.83,6899.39
1702.75,6854.86
1704.66,6811
1706.58,6764.89
1708.5,6718.51
1710.41,6673.67
1712.32,6630.22
1714.24,6587.03
1716.15,6545.44
1718.06,6504.79
1719.97,6465.28
1721.88,6426.93
1723.79,6390.76
1725.7,6357.05
1727.61,6324.54
1729.52,6294.28
1731.43,6265.28
1733.33,6237.96
1735.24,6212.31
1737.14,6188.03
1739.04,6164.76
1740.95,6141.67
1742.85,6119.64
1744.75,6098.95
1746.65,6079.38
1748.55,6058.31
1750.45,6036.75
1752.35,6016.83
1754.25,5996.09
1756.14,5975.7
1758.04,5955.8
1759.93,5934.99
1761.83,5913.72
1763.72,5893.72
1765.61,5874.17
1767.51,5854.15
1769.4,5835.64
1771.29,5816.8
1773.18,5799.15
1775.07,5781.72
1776.96,5766.88
1778.84,5751.9
1780.73,5736.02
1782.62,5719.8
1784.5,5704.85
1786.39,5689.12
1788.27,5674.62
1790.15,5658.6
1792.04,5643.67
1793.92,5627.26
1795.8,5610.58
1797.68,5594.48
1799.56,5577.15
1801.44,5559.8
1803.32,5541.97
1805.19,5523.78
1807.07,5506.06
1808.94,5487.97
1810.82,5470.42
1812.69,5452.83
1814.57,5436.5
1816.44,5420.08
1818.31,5405.47
1820.18,5390.79
1822.05,5375.51
1823.92,5360.73
1825.79,5346.85
1827.66,5333.24
1829.53,5319.55
1831.39,5304.98
1833.26,5292.43
1835.12,5277.88
1836.99,5263.96
1838.85,5249.75
1840.71,5235.03
1842.58,5219.66
1844.44,5203.93
1846.3,5187.2
1848.16,5171.71
1850.02,5154.3
1851.87,5138.17
1853.73,5121.28
1855.59,5104.19
1857.44,5087.83
1859.3,5072.94
1861.15,5057.9
1863.01,5042.86
1864.86,5028.21
1866.71,5013.03
1868.56,4997.07
1870.41,4982.37
1872.26,4967.83
1874.11,4953.03
1875.96,4939.1
1877.81,4923.38
1879.66,4908.84
1881.5,4894.32
1883.35,4879.92
1885.19,4864.72
1887.04,4850.24
1888.88,4835.78
1890.72,4821.01
1892.56,4805.99
1894.41,4790.67
1896.25,4776.82
1898.09,4761.85
1899.92,4747.55
1901.76,4733.39
1903.6,4718.95
1905.44,4704.01
1907.27,4690.65
1909.11,4675.72
1910.94,4661.78
1912.77,4647.67
1914.61,4634.38
1916.44,4621
1918.27,4606.93
1920.1,4592.02
1921.93,4578.76
1923.76,4564.97
1925.59,4551.05
1927.41,4536.52
1929.24,4522.68
1931.07,4508.98
1932.89,4495.48
1934.72,4481.41
1936.54,4466.1
1938.36,4452.71
1940.19,4437.81
1942.01,4424.03
1943.83,4410.83
1945.65,4397.78
1947.47,4384.58
1949.29,4371.38
1951.1,4357.79
1952.92,4346.4
1954.74,4333.53
1956.55,4320.8
1958.37,4306.81
1960.18,4294.8
1961.99,4282.19
1963.81,4269.24
1965.62,4255.13
1967.43,4241.61
1969.24,4227.01
1971.05,4212.22
1972.86,4197.87
1974.67,4183.13
1976.47,4168.89
1978.28,4154.81
1980.09,4141
1981.89,4126.26
1983.7,4112.55
1985.5,4099.37
1987.3,4087.28
1989.11,4075.52
1990.91,4062.27
1992.71,4050.16
1994.51,4038.5
1996.31,4027.3
1998.11,4015.7
1999.9,4004.2
2001.7,3992.11
2003.5,3978.67
2005.29,3965.41
2007.09,3951.25
2008.88,3937.72
2010.67,3924.63
2012.47,3910.01
2014.26,3896.2
2016.05,3882.43
2017.84,3868.15
2019.63,3854.24
2021.42,3841.49
2023.21,3829.16
2024.99,3816.87
2026.78,3804.13
2028.57,3792.32
2030.35,3781.2
2032.14,3770.08
2033.92,3758.43
2035.7,3746.28
2037.48,3734.44
2039.27,3722.77
2041.05,3710.79
2042.83,3698.85
2044.61,3687.2
2046.38,3675.14
2048.16,3662.21
2049.94,3649.53
2051.71,3636.27
2053.49,3623.39
2055.27,3611.05
2057.04,3598.15
2058.81,3584.98
2060.59,3571.2
2062.36,3557.37
2064.13,3545.41
2065.9,3532.5
2067.67,3521.19
2069.44,3507.59
2071.21,3495.87
2072.97,3484.51
2074.74,3473.62
2076.51,3462.18
2078.27,3451.08
2080.04,3440.33
2081.8,3428.52
2083.56,3418.07
2085.32,3406.98
2087.09,3395.11
2088.85,3383.9
2090.61,3372.31
2092.37,3359.74
2094.12,3348.33
2095.88,3334.9
2097.64,3322.52
2099.4,3309.93
2101.15,3296.81
2102.91,3284.8
2104.66,3272.76
2106.41,3261.34
2108.17,3250.17
2109.92,3239.2
2111.67,3227.85
2113.42,3217.36
2115.17,3206.35
2116.92,3195.11
2118.67,3184.37
2120.42,3173.71
2122.16,3162.8
2123.91,3152.14
2125.65,3141.48
2127.4,3130.29
2129.14,3118.98
2130.89,3108.08
2132.63,3097.34
2134.37,3086.1
2136.11,3074.69
2137.85,3063.7
2139.59,3051.76
2141.33,3040.63
2143.07,3028.56
2144.81,3017.52
2146.54,3006.19
2148.28,2996.16
2150.01,2984.69
2151.75,2974.13
2153.48,2964.75
2155.22,2953.63
2156.95,2944.05
2158.68,2934.58
2160.41,2924.49
2162.14,2916
2163.87,2906.89
2165.6,2895.76
2167.33,2886.18
2169.05,2876.11
2170.78,2865.91
2172.51,2856.18
2174.23,2845.93
2175.96,2834.93
2177.68,2823.98
2179.4,2812.14
2181.12,2800.49
2182.85,2789.83
2184.57,2778.56
2186.29,2769.22
2188.01,2758.58
2189.72,2749.02
2191.44,2739.65
2193.16,2729.35
2194.87,2719.54
2196.59,2710.61
2198.31,2701.22
2200.02,2692.47
2201.73,2682.5
2203.45,2672.46
2205.16,2663.87
2206.87,2654.54
2208.58,2644.97
2210.29,2634.93
2212,2624.95
2213.71,2615.25
2215.41,2605.47
2217.12,2595.32
2218.83,2585.61
2220.53,2576.24
2222.24,2565.42
2223.94,2555.82
2225.64,2546.54
2227.35,2536.98
2229.05,2527.11
2230.75,2517.18
2232.45,2506.41
2234.15,2497.24
2235.85,2489.28
2237.55,2481.1
2239.24,2472.4
2240.94,2463.09
2242.64,2454.01
2244.33,2444.67
2246.03,2435.96
2247.72,2427.08
2249.41,2419.06
2251.11,2409.55
2252.8,2400.54
2254.49,2391.84
2256.18,2382.59
2257.87,2373.68
2259.56,2364.2
2261.25,2355.5
2262.93,2347.46
2264.62,2338.84
2266.31,2329.5
2267.99,2321.15
2269.68,2312.36
2271.36,2305.22
2273.04,2297.4
2274.73,2288.09
2276.41,2280.12
2278.09,2272.07
2279.77,2265.12
2281.45,2257.59
2283.13,2249.91
2284.8,2241.58
2286.48,2234.06
2288.16,2226.02
2289.83,2217.98
2291.51,2211.94
2293.18,2203.36
2294.86,2196.07
2296.53,2188.28
2298.2,2180.34
2299.88,2174.11
2301.55,2166.35
2303.22,2158.43
2304.89,2150.05
2306.55,2141.59
2308.22,2134.36
2309.89,2127.61
2311.56,2120.51
2313.22,2112.98
2314.89,2106.05
2316.55,2099.08
2318.22,2091.85
2319.88,2085.59
2321.54,2078.63
2323.2,2071.44
2324.86,2064.37
2326.52,2058.16
2328.18,2051.98
2329.84,2044.59
2331.5,2037.03
2333.16,2030.76
2334.81,2023.68
2336.47,2016.03
2338.12,2008.44
2339.78,2000.99
2341.43,1994.01
2343.09,1987.89
2344.74,1980.5
2346.39,1973.89
2348.04,1967.37
2349.69,1960.59
2351.34,1953.2
2352.99,1946.95
2354.64,1940.61
2356.28,1933.75
2357.93,1927.32
2359.58,1920.19
2361.22,1913.76
2362.87,1907.01
2364.51,1900.57
2366.15,1894.84
2367.8,1887.28
2369.44,1881.31
2371.08,1874.89
2372.72,1867.89
2374.36,1861.11
2376,1853.85
2377.64,1847.2
2379.27,1839.72
2380.91,1832.11
2382.55,1825.5
2384.18,1818.5
2385.82,1811.82
2387.45,1804.82
2389.08,1798.82
2390.71,1793.14
2392.35,1786.57
2393.98,1779.63
2395.61,1773.32
2397.24,1767.1
2398.87,1760.72
2400.49,1753.44
2402.12,1746.59
2403.75,1741.65
2405.37,1735.67
2407,1729.14
2408.62,1722.28
2410.25,1715.14
2411.87,1709.01
2413.49,1701.89
2415.12,1694.51
2416.74,1687.41
2418.36,1680.91
2419.98,1673.84
2421.6,1666.66
2423.21,1660.4
2424.83,1653.98
2426.45,1647.49
2428.07,1639.99
2429.68,1633.38
2431.3,1627.28
2432.91,1620.63
2434.52,1613.75
2436.14,1607.07
2437.75,1600.77
2439.36,1594.67
2440.97,1589.41
2442.58,1583.53
2444.19,1577.46
2445.8,1571.74
2447.4,1566.11
2449.01,1559.24
2450.62,1553.33
2452.22,1547.67
2453.83,1542.33
2455.43,1535.6
2457.04,1528.82
2458.64,1522.97
2460.24,1516.41
2461.84,1509.82
2463.44,1503.64
2465.04,1497.93
2466.64,1491.54
2468.24,1486.34
2469.84,1478.84
2471.44,1473.53
2473.03,1468.08
2474.63,1463.21
2476.22,1458.18
2477.82,1451.82
2479.41,1446.09
2481,1440.41
2482.6,1435.03
2484.19,1429.85
2485.78,1424.57
2487.37,1418.98
2488.96,1413.81
2490.55,1408.31
2492.14,1402.67
2493.72,1397.92
2495.31,1391.21
2496.9,1384.76
2498.48,1379.5
2500.07,1374.82
2501.65,1370.37
2503.23,1365.32
2504.82,1359.78
2506.4,1354.08
2507.98,1349.06
2509.56,1343.54
2511.14,1338.55
2512.72,1333.52
2514.3,1328.47
2515.87,1323.35
2517.45,1317.57
2519.03,1312.76
2520.6,1309.07
2522.18,1304.71
2523.75,1299.93
2525.32,1295
2526.9,1289.87
2528.47,1285.37
2530.04,1280.41
2531.61,1276.16
2533.18,1271.25
2534.75,1266.54
2536.32,1261.23
2537.89,1256.11
2539.45,1251.16
2541.02,1246.06
2542.59,1241.38
2544.15,1236.86
2545.72,1232.08
2547.28,1227.56
2548.84,1223.25
2550.41,1218.55
2551.97,1214.46
2553.53,1209.01
2555.09,1204.73
2556.65,1200.83
2558.21,1196.68
2559.76,1193.72
2561.32,1189.68
2562.88,1184.84
2564.43,1180.2
2565.99,1175.72
2567.54,1171.46
2569.1,1167.6
2570.65,1163.38
2572.2,1159.02
2573.76,1154.85
2575.31,1150.59
2576.86,1146.18
2578.41,1142.16
2579.96,1138.72
2581.51,1134.39
2583.05,1130.15
2584.6,1125.43
2586.15,1120.84
2587.69,1117.19
2589.24,1113.76
2590.78,1109.86
2592.33,1104.87
2593.87,1101.04
2595.41,1097.8
2596.95,1094.77
2598.49,1090.69
2600.03,1086.54
2601.57,1082.84
2603.11,1078.52
2604.65,1075.24
2606.19,1071.3
2607.72,1067.67
2609.26,1064.13
2610.8,1060.35
2612.33,1056.11
2613.86,1053.09
2615.4,1048.59
2616.93,1044.87
2618.46,1040.89
2619.99,1036.74
2621.52,1033.11
2623.05,1028.76
2624.58,1024.62
2626.11,1021.98
2627.64,1018.28
2629.17,1014.1
2630.69,1009.9
2632.22,1005.77
2633.74,1001.71
2635.27,997.45
2636.79,993.85
2638.32,990.61
2639.84,987.2
2641.36,983.53
2642.88,979.49
2644.4,975.9
2645.92,972.45
2647.44,968.24
2648.96,964.03
2650.47,959.66
2651.99,955.58
2653.51,952.26
2655.02,950.24
2656.54,946.88
2658.05,942.93
2659.57,938.15
2661.08,934.51
2662.59,931.59
2664.1,927.67
2665.61,923.76
2667.12,919.54
2668.63,916.1
2670.14,913.31
2671.65,909.99
2673.16,906.29
2674.66,903.69
2676.17,899.43
2677.67,896.48
2679.18,892.59
2680.68,889.25
2682.18,887.11
2683.69,884.22
2685.19,881.08
2686.69,878.88
2688.19,875.37
2689.69,873.65
2691.19,871.52
2692.69,868.54
2694.19,865.76
2695.68,862.71
2697.18,859.91
2698.68,856.93
2700.17,854.36
2701.66,852.41
2703.16,850.21
2704.65,846.86
2706.14,844.06
2707.64,840.7
2709.13,838.6
2710.62,836.25
2712.11,833.71
2713.59,831.29
2715.08,827.78
2716.57,824.44
2718.06,821.63
2719.54,819.39
2721.03,817.06
2722.51,814.44
2724,811.39
2725.48,808.54
2726.96,806.48
2728.45,803.72
2729.93,800.24
2731.41,796.07
2732.89,793.06
2734.37,791.26
2735.85,787.82
2737.33,785
2738.8,782.11
2740.28,780.11
2741.76,777.55
2743.23,773.37
2744.71,769.45
2746.18,766.11
2747.65,762.48
2749.13,758.85
2750.6,754.51
2752.07,751.1
2753.54,748.02
2755.01,744.91
2756.48,741.94
2757.95,737.95
2759.42,734.52
2760.88,730.41
2762.35,725.87
2763.82,722.48
2765.28,719.38
2766.75,716.55
2768.21,713.39
2769.67,709.61
2771.14,705.83
2772.6,702.55
2774.06,699.54
2775.52,696.81
2776.98,692.63
2778.44,688.85
2779.9,685.8
2781.35,682.99
2782.81,681.43
2784.27,678.82
2785.72,675.93
2787.18,672.83
2788.63,669.62
2790.09,667.82
2791.54,666.04
2792.99,663.29
2794.45,659.85
2795.9,657.63
2797.35,655.27
2798.8,653.43
2800.25,651.07
2801.69,648.81
2803.14,647.76
2804.59,646.86
2806.04,645.76
2807.48,644.59
2808.93,643.67
2810.37,642.93
2811.81,642.07
2813.26,641.73
2814.7,641.11
2816.14,641.78
2817.58,643.98
2819.02,646.14
2820.46,648.44
2821.9,650.99
2823.34,653.57
2824.78,656.71
2826.22,660.63
2827.65,664.86
2829.09,669.43
2830.52,675.22
2831.96,681.58
2833.39,687.87
2834.82,694.76
2836.26,702.63
2837.69,711.53
2839.12,719.39
2840.55,728.37
2841.98,737.01
2843.41,746.59
2844.84,757.43
2846.27,768.35
2847.69,780.14
2849.12,792.27
2850.55,804.06
2851.97,816.32
2853.39,827.94
2854.82,839.74
2856.24,851.69
2857.66,863.92
2859.09,876.12
2860.51,887.74
2861.93,899.21
2863.35,911.28
2864.77,923.54
2866.19,936.27
2867.6,948.59
2869.02,960.03
2870.44,971.54
2871.85,983.97
2873.27,997.47
2874.68,1009.43
2876.1,1021.76
2877.51,1033.63
2878.92,1045.32
2880.33,1057.96
2881.74,1070.19
2883.16,1082.76
2884.57,1094.59
2885.97,1106.99
2887.38,1119.55
2888.79,1131.35
2890.2,1142.8
2891.6,1155.2
2893.01,1166.88
2894.42,1179.23
2895.82,1190.7
2897.22,1202.44
2898.63,1212.43
2900.03,1222.71
2901.43,1233.62
2902.83,1242.92
2904.23,1253.02
2905.63,1262.63
2907.03,1270.57
2908.43,1278.4
2909.83,1286.32
2911.23,1294.76
2912.62,1301.56
2914.02,1309.07
2915.42,1315.17
2916.81,1320.76
2918.2,1326.32
2919.6,1331.63
2920.99,1335.83
2922.38,1340.12
2923.77,1342.07
2925.16,1343.99
2926.55,1346.24
2927.94,1348.02
2929.33,1349.19
2930.72,1348.77
2932.11,1348.37
2933.5,1346.34
2934.88,1344.43
2936.27,1341.72
2937.65,1337.63
2939.04,1333.23
2940.42,1327.54
2941.8,1322.15
2943.18,1315.87
2944.57,1308.86
2945.95,1301.24
2947.33,1292.52
2948.71,1282.44
2950.09,1272.29
2951.46,1260.32
2952.84,1247.53
2954.22,1234.6
2955.6,1222.46
2956.97,1209.24
2958.35,1194.85
2959.72,1180.8
2961.09,1165.17
2962.47,1149.07
2963.84,1133.32
2965.21,1116.87
2966.58,1099.52
2967.95,1081.86
2969.32,1065.72
2970.69,1048.08
2972.06,1030.99
2973.43,1014.31
2974.8,996.8
2976.16,978.95
2977.53,961.16
2978.89,942.91
2980.26,926.04
2981.62,909.63
2982.98,893.2
2984.35,876.66
2985.71,858.83
2987.07,842.11
2988.43,825.24
2989.79,808.75
2991.15,791.65
2992.51,775.29
2993.87,759.41
2995.22,743.64
2996.58,728.33
2997.94,712.03
2999.29,695.59
3000.65,679.52
3002,664.25
3003.36,649.32
3004.71,634.69
3006.06,620.72
3007.41,606.96
3008.76,594.25
3010.11,581.39
3011.46,567.54
3012.81,554.69
3014.16,542.06
3015.51,529.68
3016.85,518.2
3018.2,507.81
3019.55,497.5
3020.89,488.37
3022.24,479.5
3023.58,471.08
3024.92,462.57
3026.27,454.63
3027.61,447.12
3028.95,440.11
3030.29,434.1
3031.63,428.59
3032.97,423.22
3034.31,418.25
3035.65,413.87
3036.98,408.63
3038.32,403.9
3039.66,399.8
3040.99,396.22
3042.33,392.07
3043.66,388.3
3044.99,385.12
3046.33,382.53
3047.66,379.23
3048.99,376.67
3050.32,373.35
3051.65,370.14
3052.98,367.33
3054.31,364.58
3055.64,362.33
3056.96,358.94
3058.29,355.69
3059.62,353.36
3060.94,350.4
3062.27,347.72
3063.59,344.5
3064.92,340.78
3066.24,338.07
3067.56,335.13
3068.88,332.2
3070.21,329.61
3071.53,326.24
3072.85,322.7
3074.17,319.41
3075.48,315.76
3076.8,312.97
3078.12,309.78
3079.44,305.9
3080.75,302.33
3082.07,298.73
3083.38,294.99
3084.7,290.93
3086.01,287.28
3087.32,284.11
3088.64,280.85
3089.95,277.45
3091.26,274.22
3092.57,271.11
3093.88,267.45
3095.19,263.33
3096.5,260.8
3097.8,257.67
3099.11,254.3
3100.42,252.01
3101.72,249.81
3103.03,246.93
3104.33,244.8
3105.64,242.02
3106.94,239.92
3108.24,237.71
3109.54,234.68
3110.84,233.68
3112.15,231.41
3113.45,229.08
3114.75,227.47
3116.04,225.67
3117.34,223.93
3118.64,222.55
3119.94,220.86
3121.23,219.07
3122.53,217.12
3123.82,215.24
3125.12,214.72
3126.41,213.16
3127.7,212.07
3129,211.03
3130.29,209.1
3131.58,208.07
3132.87,207.35
3134.16,206
3135.45,204.59
3136.74,203.39
3138.03,202.46
3139.31,201.48
3140.6,200.34
3141.89,199.15
3143.17,198.07
3144.46,196.92
3145.74,195.67
3147.02,194.51
3148.31,193.99
3149.59,192.22
3150.87,191.5
3152.15,190.61
3153.43,188.88
3154.71,187.82
3155.99,186.77
3157.27,185.93
3158.55,185.49
3159.82,184.91
3161.1,184.33
3162.38,183.48
3163.65,182.43
3164.93,181.8
3166.2,180.61
3167.47,180.02
3168.75,179.4
3170.02,178.67
3171.29,178.42
3172.56,177.91
3173.83,177.69
3175.1,177.79
3176.37,176.8
3177.64,175.68
3178.91,174.52
3180.17,173.11
3181.44,171.87
3182.7,172.26
3183.97,171.4
3185.23,171.1
3186.5,170.92
3187.76,170.11
3189.02,169.89
3190.29,168.81
3191.55,162.33
3192.81,196.33
3194.07,175
3195.33,172.33
3196.59,181.33
3197.85,156.33
3199.1,174
3200.36,177.67
3201.62,141.67
3202.87,173
3204.13,136
3205.38,143
3206.63,146.67
3207.89,183.67
3209.14,159.33
3210.39,180.33
3211.64,158.33
3212.89,142.33
3214.14,162.33
3215.39,125.33
