Wavenumber [cm-1],Raman Intensity
160.07,48769
162.55,49461
165.03,49884
167.5,50477.33
169.97,50842
172.45,51076
174.92,51693.33
177.39,52056.67
179.86,52513
182.33,53149.67
184.8,53546.33
187.27,53912
189.74,54237
192.2,54653.67
194.67,54874.67
197.14,55047.67
199.6,55167.33
202.06,55249.67
204.53,55245
206.99,55181
209.45,53798.94
211.91,53928.21
214.37,54032.78
216.83,54125.37
219.29,54200.58
221.74,54265.5
224.2,54322.82
226.65,54362.29
229.11,54392.2
231.56,54406.07
234.02,54402.18
236.47,54384.75
238.92,54353.68
241.37,54313.04
243.82,54258.73
246.27,54195.27
248.72,54124.56
251.16,54049.8
253.61,53967.58
256.06,53884.55
258.5,53794.46
260.95,53709.08
263.39,53624.29
265.83,53531.77
268.27,53442.82
270.71,53356.02
273.15,53262.99
275.59,53167.63
278.03,53071.95
280.47,52971.53
282.91,52869.82
285.34,52768.23
287.78,52664.1
290.21,52559.77
292.64,52452.89
295.08,52346.18
297.51,52239.93
299.94,52132.55
302.37,52028.18
304.8,51918.17
307.23,51810.36
309.66,51699.5
312.08,51584.34
314.51,51475.55
316.94,51366.24
319.36,51256.63
321.78,51147.83
324.21,51040.43
326.63,50932.44
329.05,50827.99
331.47,50724.27
333.89,50618.29
336.31,50519.44
338.73,50427.89
341.15,50332.84
343.56,50239.67
345.98,50150.92
348.39,50063.41
350.81,49975.32
353.22,49888.35
355.63,49798.44
358.04,49714.2
360.46,49628.45
362.87,49536.2
365.27,49451.6
367.68,49362.13
370.09,49270.39
372.5,49177.75
374.9,49086.85
377.31,49000.26
379.71,48914.93
382.12,48828.7
384.52,48738.95
386.92,48664.86
389.32,48580.15
391.72,48495.23
394.12,48410.99
396.52,48329.73
398.92,48245.07
401.32,48162.5
403.71,48082.55
406.11,48001.15
408.5,47922.14
410.9,47840.71
413.29,47759.03
415.68,47674.57
418.07,47587.91
420.46,47501.34
422.85,47411.66
425.24,47320.97
427.63,47230.13
430.02,47137.76
432.4,47051
434.79,46953.59
437.17,46854.85
439.56,46764.11
441.94,46672.05
444.32,46577.41
446.71,46477.76
449.09,46380.28
451.47,46283.81
453.85,46189.51
456.22,46095.21
458.6,45999.99
460.98,45905.17
463.35,45814.53
465.73,45719.46
468.1,45628.54
470.48,45538.62
472.85,45442.8
475.22,45347.77
477.59,45250.46
479.96,45150.51
482.33,45053.66
484.7,44943.39
487.07,44847.47
489.44,44741.64
491.8,44634.68
494.17,44525.77
496.53,44421.09
498.9,44316.75
501.26,44208.02
503.62,44102.7
505.98,43996.89
508.34,43895.2
510.7,43788.55
513.06,43687.69
515.42,43589.02
517.78,43490.32
520.14,43392.63
522.49,43294.68
524.85,43194.76
527.2,43101.82
529.55,43006.12
531.91,42913.1
534.26,42815.22
536.61,42714.3
538.96,42609.76
541.31,42505.86
543.66,42406.39
546,42304.63
548.35,42206.31
550.7,42111.16
553.04,42005.47
555.39,41903.02
557.73,41805.41
560.07,41699.19
562.41,41602.76
564.76,41503.67
567.1,41411.3
569.44,41323
571.77,41231.67
574.11,41141.81
576.45,41053.16
578.79,40966.25
581.12,40876.55
583.46,40777.54
585.79,40683.32
588.12,40590.76
590.46,40497.07
592.79,40404.46
595.12,40307.2
597.45,40214.47
599.78,40119.15
602.1,40024.41
604.43,39926.63
606.76,39830.01
609.08,39729.82
611.41,39631.41
613.73,39539.13
616.06,39442.49
618.38,39348.94
620.7,39257.37
623.02,39161.14
625.34,39060.39
627.66,38965.52
629.98,38872.4
632.3,38776.24
634.61,38685.7
636.93,38594.45
639.25,38504.47
641.56,38414.91
643.87,38322.24
646.19,38225.47
648.5,38144.86
650.81,38057.8
653.12,37970.88
655.43,37890.76
657.74,37806.5
660.05,37722.46
662.35,37636.77
664.66,37547.32
666.97,37464.97
669.27,37380.85
671.57,37301.1
673.88,37214.14
676.18,37126.98
678.48,37046.55
680.78,36969.33
683.08,36891.32
685.38,36810.21
687.68,36729
689.98,36646.33
692.27,36569.42
694.57,36489.88
696.86,36411.02
699.16,36336.78
701.45,36265.76
703.74,36197.08
706.04,36126.42
708.33,36053
710.62,35982.89
712.91,35915.17
715.2,35840.75
717.48,35773.26
719.77,35706.81
722.06,35633.63
724.34,35564.52
726.63,35502.97
728.91,35431.91
731.19,35361.52
733.48,35295.33
735.76,35224.08
738.04,35155.71
740.32,35088.65
742.6,35019.34
744.87,34953.47
747.15,34886.18
749.43,34818.37
751.7,34746.1
753.98,34675.76
756.25,34610.36
758.53,34538.02
760.8,34463.78
763.07,34389.14
765.34,34311.19
767.61,34239.17
769.88,34169.19
772.15,34099.13
774.42,34031.11
776.68,33959.85
778.95,33894.61
781.21,33828.27
783.48,33767.24
785.74,33708.35
788,33652.44
790.27,33596.24
792.53,33538.37
794.79,33486.71
797.05,33432.85
799.31,33384.31
801.56,33329.72
803.82,33279.38
806.08,33223.5
808.33,33180.57
810.59,33132.5
812.84,33090.77
815.1,33057.37
817.35,33024.92
819.6,32985.59
821.85,32954.62
824.1,32924.87
826.35,32884.73
828.6,32844.22
830.84,32796.33
833.09,32747.79
835.34,32697.35
837.58,32640.15
839.83,32580.27
842.07,32519.33
844.31,32469.07
846.55,32412.05
848.8,32344.52
851.04,32290.2
853.27,32233.74
855.51,32179.66
857.75,32123.1
859.99,32078.11
862.22,32027.6
864.46,31972.8
866.69,31917.55
868.93,31867.54
871.16,31821.52
873.39,31766.86
875.63,31713.12
877.86,31650.74
880.09,31589.49
882.31,31527.94
884.54,31471.83
886.77,31406.02
889,31344.34
891.22,31277.89
893.45,31214.15
895.67,31150.32
897.9,31090.92
900.12,31022.4
902.34,30953.06
904.56,30879.24
906.78,30802.18
909,30719.93
911.22,30640.4
913.44,30556.4
915.65,30471.12
917.87,30395.07
920.08,30328.56
922.3,30267.95
924.51,30205.48
926.73,30143.26
928.94,30086.38
931.15,30030.99
933.36,29973.54
935.57,29913.02
937.78,29853.25
939.99,29799.3
942.19,29744.06
944.4,29688.24
946.61,29639.76
948.81,29607.16
951.02,29572.95
953.22,29556.2
955.42,29546.43
957.62,29540.84
959.82,29526.77
962.02,29492
964.22,29453.14
966.42,29402.49
968.62,29347.61
970.82,29289.36
973.01,29231.99
975.21,29173.61
977.4,29122.87
979.6,29071.73
981.79,29030.67
983.98,28985.8
986.17,28940.51
988.36,28891.19
990.55,28839.99
992.74,28783.75
994.93,28725.88
997.12,28664.56
999.3,28599.01
1001.49,28532.4
1003.67,28470.95
1005.86,28409.17
1008.04,28345.47
1010.22,28280.28
1012.41,28220.49
1014.59,28166.37
1016.77,28115.5
1018.95,28068.04
1021.12,28024.55
1023.3,27989.55
1025.48,27950.88
1027.66,27917.1
1029.83,27879.28
1032.01,27842.04
1034.18,27802.31
1036.35,27754.64
1038.52,27690.71
1040.7,27617.73
1042.87,27531.48
1045.04,27437.14
1047.2,27341.37
1049.37,27246.75
1051.54,27163.16
1053.71,27092.86
1055.87,27029.46
1058.04,26970.5
1060.2,26912.32
1062.36,26853.88
1064.53,26791.42
1066.69,26724.71
1068.85,26658.55
1071.01,26576.09
1073.17,26498.83
1075.33,26418.69
1077.49,26343.18
1079.64,26264.69
1081.8,26193.06
1083.95,26127.95
1086.11,26058.66
1088.26,25997.25
1090.42,25931.54
1092.57,25865.98
1094.72,25802.73
1096.87,25737.69
1099.02,25672.78
1101.17,25604.28
1103.32,25528.96
1105.47,25458.3
1107.61,25383.67
1109.76,25312.1
1111.9,25238.33
1114.05,25163.01
1116.19,25087.85
1118.33,25013.76
1120.47,24938.45
1122.62,24859.99
1124.76,24784.33
1126.9,24709.59
1129.03,24636.03
1131.17,24565.69
1133.31,24501.14
1135.45,24433.65
1137.58,24375.8
1139.72,24322.38
1141.85,24266.67
1143.98,24214.27
1146.12,24167.83
1148.25,24123.2
1150.38,24080.3
1152.51,24036.77
1154.64,23994.24
1156.77,23952.78
1158.89,23918.95
1161.02,23883.45
1163.15,23851.47
1165.27,23813.54
1167.4,23780.54
1169.52,23741.78
1171.64,23703.66
1173.76,23673.06
1175.88,23639.67
1178.01,23606.59
1180.13,23580.19
1182.24,23547.58
1184.36,23516
1186.48,23482.93
1188.6,23453.74
1190.71,23427.77
1192.83,23400.18
1194.94,23377.66
1197.05,23351.52
1199.17,23326.27
1201.28,23310.64
1203.39,23298.27
1205.5,23293.45
1207.61,23295.14
1209.72,23306.83
1211.82,23324.35
1213.93,23352.79
1216.04,23383.11
1218.14,23417.85
1220.25,23455.27
1222.35,23497.34
1224.45,23532.13
1226.56,23558.78
1228.66,23582.56
1230.76,23603.38
1232.86,23612.85
1234.96,23621.84
1237.06,23621.36
1239.15,23615.76
1241.25,23611.74
1243.35,23603.24
1245.44,23593.12
1247.54,23585.74
1249.63,23576.02
1251.72,23574.19
1253.81,23575.62
1255.91,23584.54
1258,23590.61
1260.09,23599.56
1262.17,23605.46
1264.26,23612.13
1266.35,23604.98
1268.44,23595.98
1270.52,23586.65
1272.61,23573.33
1274.69,23547.46
1276.77,23525.26
1278.86,23491.07
1280.94,23450.4
1283.02,23404.74
1285.1,23355.64
1287.18,23295.24
1289.26,23230.88
1291.34,23157.41
1293.41,23077.89
1295.49,22987.59
1297.56,22893.43
1299.64,22790.7
1301.71,22681.49
1303.79,22571.79
1305.86,22454.72
1307.93,22332.22
1310,22220.97
1312.07,22110.93
1314.14,22004.51
1316.21,21900.67
1318.28,21804.58
1320.34,21707.85
1322.41,21621.41
1324.47,21541.54
1326.54,21458.72
1328.6,21379.6
1330.66,21299.9
1332.73,21216.71
1334.79,21134.08
1336.85,21046.85
1338.91,20954.64
1340.97,20864.8
1343.03,20772.92
1345.08,20675.8
1347.14,20582.95
1349.19,20496.26
1351.25,20419.5
1353.3,20349.77
1355.36,20286.18
1357.41,20221.66
1359.46,20160.4
1361.51,20098.72
1363.56,20041.46
1365.61,19986.63
1367.66,19940.78
1369.71,19896.33
1371.76,19854.02
1373.8,19815.14
1375.85,19780.69
1377.89,19748.41
1379.94,19725.88
1381.98,19704.03
1384.02,19689.72
1386.07,19701.11
1388.11,19707.01
1390.15,19725.19
1392.19,19758.31
1394.22,19794.36
1396.26,19842.85
1398.3,19897.66
1400.34,19951.77
1402.37,20002.72
1404.41,20052.33
1406.44,20096.64
1408.47,20135.15
1410.51,20170.36
1412.54,20192.73
1414.57,20215.33
1416.6,20233.85
1418.63,20244.95
1420.66,20250.84
1422.68,20251.14
1424.71,20240.39
1426.74,20224.87
1428.76,20207.34
1430.79,20189.86
1432.81,20165.3
1434.83,20132.09
1436.85,20096.58
1438.88,20055.62
1440.9,20016.5
1442.92,19977.46
1444.94,19934.63
1446.95,19892.44
1448.97,19849.56
1450.99,19799.58
1453,19746.61
1455.02,19699.35
1457.03,19645.82
1459.05,19587.66
1461.06,19528.92
1463.07,19463.98
1465.08,19393.98
1467.09,19317.1
1469.1,19216.98
1471.11,19117.41
1473.12,19012.07
1475.13,18893.5
1477.13,18769.18
1479.14,18636.66
1481.15,18499.25
1483.15,18366.12
1485.15,18235.89
1487.16,18109.67
1489.16,17983.67
1491.16,17860.96
1493.16,17747.77
1495.16,17640.48
1497.16,17536.06
1499.16,17433.68
1501.15,17342.2
1503.15,17258.26
1505.15,17178.69
1507.14,17105.92
1509.14,17038.62
1511.13,16974.9
1513.12,16914.03
1515.11,16857.82
1517.1,16807.97
1519.09,16759.78
1521.08,16712.82
1523.07,16665.68
1525.06,16622.45
1527.05,16583.26
1529.03,16537.42
1531.02,16499.8
1533.01,16465.16
1534.99,16428.81
1536.97,16392.51
1538.96,16361.55
1540.94,16331.24
1542.92,16302.72
1544.9,16269.92
1546.88,16242.32
1548.86,16212.11
1550.84,16183.26
1552.81,16155.63
1554.79,16130.67
1556.76,16109.02
1558.74,16090.12
1560.71,16077.89
1562.69,16059.59
1564.66,16040.89
1566.63,16018.37
1568.6,15989.75
1570.57,15964.56
1572.54,15938.2
1574.51,15905.49
1576.48,15877.21
1578.45,15848.53
1580.41,15821.08
1582.38,15787.04
1584.34,15754.5
1586.31,15723.77
1588.27,15693.79
1590.23,15665.57
1592.19,15644.49
1594.16,15619.56
1596.12,15602.98
1598.07,15583.82
1600.03,15575.87
1601.99,15574.19
1603.95,15584.58
1605.9,15611.07
1607.86,15649.51
1609.82,15709.28
1611.77,15778.93
1613.72,15856.8
1615.68,15947.54
1617.63,16029.37
1619.58,16097.11
1621.53,16154.78
1623.48,16189.59
1625.43,16213.76
1627.37,16219.03
1629.32,16211.11
1631.27,16196.38
1633.21,16171.96
1635.16,16134.72
1637.1,16094.08
1639.05,16046.5
1640.99,15990.74
1642.93,15938.81
1644.87,15886.07
1646.81,15839.01
1648.75,15795.48
1650.69,15749.89
1652.63,15711.04
1654.56,15673.89
1656.5,15633.67
1658.44,15592.84
1660.37,15552.11
1662.31,15518.17
1664.24,15480.79
1666.17,15439.21
1668.1,15397.07
1670.03,15352.66
1671.96,15300.98
1673.89,15252.8
1675.82,15193.23
1677.75,15136.33
1679.68,15070.92
1681.6,14994.73
1683.53,14910.52
1685.46,14814.22
1687.38,14700.95
1689.3,14578.02
1691.23,14440.59
1693.15,14293.11
1695.07,14136.01
1696.99,13991.38
1698.91,13858.2
1700.83,13738.12
1702.75,13635.68
1704.66,13550.5
1706.58,13477.85
1708.5,13418.41
1710.41,13360.47
1712.32,13314.61
1714.24,13270.26
1716.15,13223.34
1718.06,13177.75
1719.97,13134.59
1721.88,13092.74
1723.79,13048.08
1725.7,13002.66
1727.61,12961.96
1729.52,12923.29
1731.43,12883.93
1733.33,12840.52
1735.24,12801.71
1737.14,12763.44
1739.04,12726.73
1740.95,12687.28
1742.85,12649.73
1744.75,12618.11
1746.65,12581.15
1748.55,12546.5
1750.45,12515.67
1752.35,12477.32
1754.25,12442.08
1756.14,12407.72
1758.04,12369.01
1759.93,12331.41
1761.83,12296.46
1763.72,12253.12
1765.61,12211.07
1767.51,12170
1769.4,12123.67
1771.29,12080.85
1773.18,12038.93
1775.07,11986.77
1776.96,11936.38
1778.84,11885.07
1780.73,11836.58
1782.62,11787.78
1784.5,11741.2
1786.39,11696.89
1788.27,11657.95
1790.15,11613.46
1792.04,11577.42
1793.92,11545.5
1795.8,11509.14
1797.68,11475.09
1799.56,11436.25
1801.44,11402.4
1803.32,11367.5
1805.19,11330.67
1807.07,11293.3
1808.94,11254.54
1810.82,11218.67
1812.69,11184.1
1814.57,11145.86
1816.44,11110.67
1818.31,11073.09
1820.18,11040.72
1822.05,11005.25
1823.92,10977.93
1825.79,10945.98
1827.66,10912.57
1829.53,10880.24
1831.39,10849.16
1833.26,10820.8
1835.12,10790.36
1836.99,10761.78
1838.85,10730.42
1840.71,10702.75
1842.58,10678.01
1844.44,10648.26
1846.3,10618.76
1848.16,10583.76
1850.02,10548.34
1851.87,10517.39
1853.73,10486.11
1855.59,10451.84
1857.44,10418.68
1859.3,10385.33
1861.15,10354.79
1863.01,10319.62
1864.86,10283.48
1866.71,10253.45
1868.56,10219.7
1870.41,10186.43
1872.26,10155.12
1874.11,10125.24
1875.96,10101.28
1877.81,10068.93
1879.66,10041.8
1881.5,10012.13
1883.35,9982.65
1885.19,9954.22
1887.04,9925.35
1888.88,9892.46
1890.72,9859.58
1892.56,9827.45
1894.41,9798.93
1896.25,9764.18
1898.09,9731.56
1899.92,9699.02
1901.76,9668.07
1903.6,9637.21
1905.44,9610.94
1907.27,9583.04
1909.11,9553.46
1910.94,9526.07
1912.77,9498.99
1914.61,9467.84
1916.44,9438.46
1918.27,9408.52
1920.1,9377.24
1921.93,9347.63
1923.76,9318.89
1925.59,9290.86
1927.41,9262.42
1929.24,9233.76
1931.07,9205.41
1932.89,9175.93
1934.72,9146.22
1936.54,9113.29
1938.36,9082.45
1940.19,9053.34
1942.01,9020.43
1943.83,8993.28
1945.65,8964.15
1947.47,8936.9
1949.29,8908.87
1951.1,8877.32
1952.92,8851.28
1954.74,8823.98
1956.55,8796.87
1958.37,8773.51
1960.18,8745.15
1961.99,8716.59
1963.81,8691.41
1965.62,8668.84
1967.43,8639.07
1969.24,8610.71
1971.05,8582.62
1972.86,8554.02
1974.67,8522.8
1976.47,8495.67
1978.28,8463.9
1980.09,8428.37
1981.89,8395.54
1983.7,8361.86
1985.5,8331.99
1987.3,8300.6
1989.11,8272.95
1990.91,8244.52
1992.71,8215.91
1994.51,8189.87
1996.31,8167.63
1998.11,8143.32
1999.9,8118.51
2001.7,8093.09
2003.5,8069.33
2005.29,8044.43
2007.09,8017.18
2008.88,7990.27
2010.67,7967.01
2012.47,7944.02
2014.26,7918.97
2016.05,7894.97
2017.84,7862.28
2019.63,7830.82
2021.42,7802.26
2023.21,7773.04
2024.99,7747.99
2026.78,7721.82
2028.57,7695.41
2030.35,7668.45
2032.14,7640.1
2033.92,7615.3
2035.7,7593.99
2037.48,7568.17
2039.27,7545.73
2041.05,7525.98
2042.83,7500.48
2044.61,7476.18
2046.38,7452.06
2048.16,7428.95
2049.94,7405.16
2051.71,7381.93
2053.49,7363.84
2055.27,7342.46
2057.04,7321.67
2058.81,7297.59
2060.59,7274.6
2062.36,7255.09
2064.13,7231.67
2065.9,7209.5
2067.67,7186.47
2069.44,7161.34
2071.21,7138.46
2072.97,7117.11
2074.74,7096.88
2076.51,7072.83
2078.27,7051.15
2080.04,7032.47
2081.8,7013.41
2083.56,6988.69
2085.32,6966.98
2087.09,6946.16
2088.85,6920.94
2090.61,6899.01
2092.37,6878.22
2094.12,6855.89
2095.88,6837.46
2097.64,6812.48
2099.4,6791.99
2101.15,6768.41
2102.91,6746.85
2104.66,6725.58
2106.41,6703.08
2108.17,6678.72
2109.92,6659.89
2111.67,6635.62
2113.42,6616.02
2115.17,6599.09
2116.92,6580.1
2118.67,6564.36
2120.42,6545.1
2122.16,6522.37
2123.91,6501.72
2125.65,6476.13
2127.4,6455.55
2129.14,6430.85
2130.89,6410.56
2132.63,6387.48
2134.37,6360.28
2136.11,6337.33
2137.85,6313.08
2139.59,6286.89
2141.33,6265.46
2143.07,6244.62
2144.81,6221.51
2146.54,6201.33
2148.28,6181.78
2150.01,6161.84
2151.75,6140.11
2153.48,6119.93
2155.22,6103.49
2156.95,6085.54
2158.68,6065.91
2160.41,6053.36
2162.14,6035.86
2163.87,6020.67
2165.6,6005.92
2167.33,5984.45
2169.05,5967.48
2170.78,5946.74
2172.51,5928.62
2174.23,5909.25
2175.96,5889.66
2177.68,5874.06
2179.4,5854.4
2181.12,5833
2182.85,5814.89
2184.57,5792.92
2186.29,5771.2
2188.01,5749.24
2189.72,5726.94
2191.44,5707.26
2193.16,5689.23
2194.87,5673.05
2196.59,5658.5
2198.31,5639.98
2200.02,5623.99
2201.73,5604.99
2203.45,5588.42
2205.16,5570.73
2206.87,5554.06
2208.58,5536.69
2210.29,5522.67
2212,5502.89
2213.71,5484.81
2215.41,5468.3
2217.12,5444.8
2218.83,5424.47
2220.53,5404.88
2222.24,5384.24
2223.94,5362.89
2225.64,5339.26
2227.35,5318.15
2229.05,5301.27
2230.75,5277.8
2232.45,5261.37
2234.15,5244.15
2235.85,5223.26
2237.55,5206.35
2239.24,5190.25
2240.94,5172.14
2242.64,5155.54
2244.33,5137.03
2246.03,5117.71
2247.72,5096.58
2249.41,5082.84
2251.11,5062.34
2252.8,5042.58
2254.49,5024.71
2256.18,5005.64
2257.87,4988.77
2259.56,4970.07
2261.25,4949.82
2262.93,4930.94
2264.62,4913.33
2266.31,4895.22
2267.99,4880.11
2269.68,4862.83
2271.36,4846.2
2273.04,4831.62
2274.73,4816.98
2276.41,4800.11
2278.09,4782.76
2279.77,4769.98
2281.45,4754.38
2283.13,4739.33
2284.8,4721.5
2286.48,4709.57
2288.16,4694.93
2289.83,4683.08
2291.51,4671.07
2293.18,4657.62
2294.86,4645.06
2296.53,4629.15
2298.2,4613.09
2299.88,4600.87
2301.55,4583.65
2303.22,4564.55
2304.89,4551.2
2306.55,4536.41
2308.22,4521.51
2309.89,4510.94
2311.56,4493.56
2313.22,4482.59
2314.89,4469.39
2316.55,4455.38
2318.22,4438.79
2319.88,4425.87
2321.54,4416.44
2323.2,4403.33
2324.86,4390.5
2326.52,4378.34
2328.18,4364.98
2329.84,4352.04
2331.5,4339.07
2333.16,4324.28
2334.81,4310.89
2336.47,4293.55
2338.12,4278.35
2339.78,4266.28
2341.43,4252.5
2343.09,4237.58
2344.74,4225.8
2346.39,4221.63
2348.04,4206.1
2349.69,4194.06
2351.34,4180.67
2352.99,4168.34
2354.64,4154.71
2356.28,4144.97
2357.93,4130.41
2359.58,4118.98
2361.22,4110.06
2362.87,4100.48
2364.51,4089.69
2366.15,4080.74
2367.8,4067.05
2369.44,4056.26
2371.08,4043.63
2372.72,4026.2
2374.36,4011.51
2376,3997.91
2377.64,3986.61
2379.27,3974.89
2380.91,3960.93
2382.55,3948.71
2384.18,3937.5
2385.82,3927.63
2387.45,3914.87
2389.08,3901.49
2390.71,3889.31
2392.35,3877.67
2393.98,3865.05
2395.61,3857.07
2397.24,3850.54
2398.87,3837.86
2400.49,3830.44
2402.12,3818.96
2403.75,3809.49
2405.37,3799.66
2407,3789.8
2408.62,3774.89
2410.25,3764.37
2411.87,3752.62
2413.49,3731.24
2415.12,3716.28
2416.74,3701.56
2418.36,3687.45
2419.98,3674.34
2421.6,3664.67
2423.21,3651.08
2424.83,3637.8
2426.45,3623.55
2428.07,3608.72
2429.68,3593.55
2431.3,3581.07
2432.91,3566.32
2434.52,3552.93
2436.14,3540.13
2437.75,3530.34
2439.36,3520.3
2440.97,3511.8
2442.58,3499.15
2444.19,3483.02
2445.8,3472.49
2447.4,3459.15
2449.01,3446.73
2450.62,3435.11
2452.22,3423.01
2453.83,3412.46
2455.43,3397.97
2457.04,3388.63
2458.64,3378.28
2460.24,3367.64
2461.84,3353.21
2463.44,3337.49
2465.04,3328.96
2466.64,3313.59
2468.24,3300.97
2469.84,3286.62
2471.44,3272.54
2473.03,3259.13
2474.63,3253.79
2476.22,3242.63
2477.82,3232.04
2479.41,3224.9
2481,3215.63
2482.6,3205.32
2484.19,3199.34
2485.78,3190.57
2487.37,3178.03
2488.96,3165.6
2490.55,3159.76
2492.14,3153
2493.72,3140.77
2495.31,3133.37
2496.9,3125.41
2498.48,3114.41
2500.07,3109.09
2501.65,3101.04
2503.23,3091.48
2504.82,3094.16
2506.4,3083.17
2507.98,3076.17
2509.56,3067.18
2511.14,3060.64
2512.72,3053.93
2514.3,3048.26
2515.87,3035.02
2517.45,3024.4
2519.03,3017.8
2520.6,3011.45
2522.18,3000.52
2523.75,2992.1
2525.32,2982.91
2526.9,2974.03
2528.47,2967.16
2530.04,2959.9
2531.61,2952.88
2533.18,2945.51
2534.75,2940.35
2536.32,2935.22
2537.89,2926.63
2539.45,2914.36
2541.02,2905.24
2542.59,2899.32
2544.15,2890.76
2545.72,2883.88
2547.28,2879.41
2548.84,2871.2
2550.41,2864.02
2551.97,2853.81
2553.53,2845.31
2555.09,2835.57
2556.65,2829.47
2558.21,2825.24
2559.76,2816.72
2561.32,2809.59
2562.88,2801.52
2564.43,2791.7
2565.99,2786.07
2567.54,2779.4
2569.1,2760.71
2570.65,2752.85
2572.2,2747.45
2573.76,2742.2
2575.31,2734.5
2576.86,2732.58
2578.41,2722.89
2579.96,2718.5
2581.51,2711
2583.05,2703.2
2584.6,2698.83
2586.15,2691.3
2587.69,2684.61
2589.24,2680.04
2590.78,2673.58
2592.33,2667.23
2593.87,2659.85
2595.41,2650.91
2596.95,2646.39
2598.49,2640.33
2600.03,2634.77
2601.57,2628.95
2603.11,2623.23
2604.65,2621.6
2606.19,2611.69
2607.72,2606.28
2609.26,2599.45
2610.8,2593.6
2612.33,2585.43
2613.86,2585.66
2615.4,2581.76
2616.93,2576.8
2618.46,2569.94
2619.99,2561.1
2621.52,2556.72
2623.05,2551.67
2624.58,2542.17
2626.11,2539.43
2627.64,2533.09
2629.17,2524.68
2630.69,2520.81
2632.22,2515.2
2633.74,2509.36
2635.27,2497.68
2636.79,2491.85
2638.32,2485.88
2639.84,2475.67
2641.36,2472.81
2642.88,2470.86
2644.4,2467.02
2645.92,2461.59
2647.44,2453.98
2648.96,2455.57
2650.47,2449.94
2651.99,2441.09
2653.51,2434.16
2655.02,2426.76
2656.54,2420.85
2658.05,2416.81
2659.57,2407.61
2661.08,2398.36
2662.59,2394.96
2664.1,2391.33
2665.61,2387.99
2667.12,2381.26
2668.63,2376.23
2670.14,2372.71
2671.65,2370.92
2673.16,2365.16
2674.66,2361.85
2676.17,2351.64
2677.67,2346.43
2679.18,2342.5
2680.68,2340.48
2682.18,2336.47
2683.69,2329.85
2685.19,2327.99
2686.69,2328.66
2688.19,2321.98
2689.69,2320.93
2691.19,2318.59
2692.69,2312.26
2694.19,2311.74
2695.68,2310.22
2697.18,2309.78
2698.68,2308.24
2700.17,2303.97
2701.66,2298.34
2703.16,2291.23
2704.65,2285.06
2706.14,2278.37
2707.64,2270.48
2709.13,2266.06
2710.62,2255.11
2712.11,2250.06
2713.59,2248.54
2715.08,2243.92
2716.57,2237.54
2718.06,2229.37
2719.54,2222.17
2721.03,2219.44
2722.51,2218.43
2724,2206.14
2725.48,2196.67
2726.96,2190.5
2728.45,2179.69
2729.93,2175.33
2731.41,2163.37
2732.89,2152.5
2734.37,2144.89
2735.85,2137.54
2737.33,2127.75
2738.8,2119.88
2740.28,2112.32
2741.76,2103.94
2743.23,2091.94
2744.71,2084.5
2746.18,2074.34
2747.65,2065.04
2749.13,2057.22
2750.6,2045.37
2752.07,2036.61
2753.54,2028.56
2755.01,2017.36
2756.48,2008.87
2757.95,2002.69
2759.42,1994.04
2760.88,1985.65
2762.35,1980.82
2763.82,1978.59
2765.28,1973.23
2766.75,1967.34
2768.21,1966.64
2769.67,1961.19
2771.14,1955.9
2772.6,1950.87
2774.06,1945.62
2775.52,1944.28
2776.98,1946.5
2778.44,1945.36
2779.9,1944.52
2781.35,1941.92
2782.81,1939.32
2784.27,1940.03
2785.72,1939.48
2787.18,1940.35
2788.63,1945.89
2790.09,1948.03
2791.54,1955.94
2792.99,1961.06
2794.45,1965.41
2795.9,1972.27
2797.35,1979.94
2798.8,1989.99
2800.25,1997.58
2801.69,2007.88
2803.14,2025.3
2804.59,2040.56
2806.04,2054.67
2807.48,2072.09
2808.93,2096.12
2810.37,2126.56
2811.81,2158.89
2813.26,2194.72
2814.7,2235.28
2816.14,2280.24
2817.58,2331.78
2819.02,2383.75
2820.46,2443.43
2821.9,2504.16
2823.34,2560.37
2824.78,2620.69
2826.22,2685.91
2827.65,2746.81
2829.09,2805.9
2830.52,2863.66
2831.96,2921.93
2833.39,2979.16
2834.82,3031.95
2836.26,3080.11
2837.69,3132.23
2839.12,3185.72
2840.55,3237.12
2841.98,3290.67
2843.41,3344.09
2844.84,3398.97
2846.27,3448.96
2847.69,3500.16
2849.12,3552.62
2850.55,3604.71
2851.97,3658.14
2853.39,3710.39
2854.82,3764.09
2856.24,3818.02
2857.66,3870.41
2859.09,3922.79
2860.51,3970.37
2861.93,4017.34
2863.35,4062.86
2864.77,4109.07
2866.19,4152.21
2867.6,4192.51
2869.02,4227.43
2870.44,4258.99
2871.85,4287.1
2873.27,4326.07
2874.68,4340.8
2876.1,4354.79
2877.51,4361.07
2878.92,4361.53
2880.33,4359.07
2881.74,4359.91
2883.16,4358.16
2884.57,4352.25
2885.97,4349.22
2887.38,4345.49
2888.79,4345.8
2890.2,4340.25
2891.6,4338.22
2893.01,4340.76
2894.42,4341.63
2895.82,4345.04
2897.22,4345.2
2898.63,4344.82
2900.03,4341.37
2901.43,4339.86
2902.83,4333.06
2904.23,4329.4
2905.63,4323.89
2907.03,4317.13
2908.43,4303.86
2909.83,4289.2
2911.23,4274.07
2912.62,4250.09
2914.02,4225.85
2915.42,4196.37
2916.81,4169.2
2918.2,4141.02
2919.6,4108.42
2920.99,4071.39
2922.38,4034.36
2923.77,3997.04
2925.16,3955.48
2926.55,3912.78
2927.94,3868.81
2929.33,3823.11
2930.72,3763.76
2932.11,3719.28
2933.5,3669.06
2934.88,3623.67
2936.27,3578.07
2937.65,3531.04
2939.04,3483.81
2940.42,3434.11
2941.8,3386.04
2943.18,3334.15
2944.57,3286.93
2945.95,3234.01
2947.33,3185.3
2948.71,3132.59
2950.09,3076.5
2951.46,3023.66
2952.84,2968.75
2954.22,2914.43
2955.6,2861.48
2956.97,2806.75
2958.35,2755.27
2959.72,2706.13
2961.09,2650.83
2962.47,2599.18
2963.84,2546.84
2965.21,2497.45
2966.58,2449.23
2967.95,2402.2
2969.32,2363.95
2970.69,2326.47
2972.06,2292.87
2973.43,2261.88
2974.8,2229.04
2976.16,2199.81
2977.53,2177.82
2978.89,2161.43
2980.26,2142.72
2981.62,2128.14
2982.98,2113.67
2984.35,2101.34
2985.71,2088.18
2987.07,2074.46
2988.43,2063.73
2989.79,2049.85
2991.15,2037.43
2992.51,2021.66
2993.87,2007.67
2995.22,1991.32
2996.58,1976.84
2997.94,1963.48
2999.29,1947.96
3000.65,1933.54
3002,1920.5
3003.36,1908.5
3004.71,1898.69
3006.06,1890.61
3007.41,1880.37
3008.76,1870.97
3010.11,1860.32
3011.46,1852.13
3012.81,1842.43
3014.16,1831.73
3015.51,1821.36
3016.85,1817.46
3018.2,1807.2
3019.55,1798.8
3020.89,1791.75
3022.24,1785.05
3023.58,1776.69
3024.92,1768.05
3026.27,1758.85
3027.61,1748.29
3028.95,1734.29
3030.29,1722.92
3031.63,1715.09
3032.97,1699.09
3034.31,1679.41
3035.65,1657.28
3036.98,1635.2
3038.32,1614.6
3039.66,1595.7
3040.99,1576.83
3042.33,1555.25
3043.66,1533.28
3044.99,1516.82
3046.33,1496.98
3047.66,1481.58
3048.99,1467.03
3050.32,1455.16
3051.65,1442.79
3052.98,1428.95
3054.31,1418.01
3055.64,1407.89
3056.96,1397.76
3058.29,1387.28
3059.62,1374.26
3060.94,1363.37
3062.27,1356.47
3063.59,1344.18
3064.92,1334.43
3066.24,1324.98
3067.56,1318.43
3068.88,1308.11
3070.21,1293.94
3071.53,1281.11
3072.85,1272.87
3074.17,1262.22
3075.48,1253.46
3076.8,1245.04
3078.12,1235.76
3079.44,1222.32
3080.75,1211.95
3082.07,1202.16
3083.38,1192.96
3084.7,1187.14
3086.01,1171.92
3087.32,1162.63
3088.64,1153.72
3089.95,1148.53
3091.26,1139.3
3092.57,1128.86
3093.88,1121.76
3095.19,1111.11
3096.5,1104.76
3097.8,1100.2
3099.11,1091.72
3100.42,1086.01
3101.72,1079.74
3103.03,1072.12
3104.33,1065.22
3105.64,1057.29
3106.94,1052.1
3108.24,1048.61
3109.54,1041.54
3110.84,1040.2
3112.15,1036.93
3113.45,1034.47
3114.75,1029.67
3116.04,1023.97
3117.34,1020.38
3118.64,1018.76
3119.94,1013.87
3121.23,1005.82
3122.53,1001.11
3123.82,1001.67
3125.12,1001.24
3126.41,998.12
3127.7,995.94
3129,991.33
3130.29,987.32
3131.58,987.23
3132.87,986.1
3134.16,981.57
3135.45,980.13
3136.74,978.23
3138.03,971.89
3139.31,971.48
3140.6,971.13
3141.89,968.04
3143.17,966.68
3144.46,969.42
3145.74,971.11
3147.02,964.01
3148.31,965.13
3149.59,960.87
3150.87,954.63
3152.15,951.76
3153.43,951.39
3154.71,947.85
3155.99,948.89
3157.27,947.3
3158.55,943.98
3159.82,943.45
3161.1,942.39
3162.38,941.17
3163.65,936.89
3164.93,931.94
3166.2,926.81
3167.47,925.58
3168.75,927.54
3170.02,928.14
3171.29,926.16
3172.56,924.22
3173.83,925.97
3175.1,927.71
3176.37,930.41
3177.64,928.4
3178.91,926.57
3180.17,923.42
3181.44,922.22
3182.7,919.62
3183.97,916.89
3185.23,912.92
3186.5,914.26
3187.76,910.96
3189.02,906.39
3190.29,902.76
3191.55,808.33
3192.81,939.67
3194.07,1079.67
3195.33,930
3196.59,926.67
3197.85,855
3199.1,883.67
3200.36,936
3201.62,1041.33
3202.87,951.67
3204.13,888.33
3205.38,834.67
3206.63,869.67
3207.89,853.33
3209.14,894
3210.39,796
3211.64,965.33
3212.89,820.67
3214.14,797
3215.39,753
