Wavenumber [cm-1],Raman Intensity
160.07,21689.67
162.55,22044.67
165.03,22092.67
167.5,22298.33
169.97,22452.67
172.45,22353.67
174.92,22648.67
177.39,22746
179.86,22855.67
182.33,23051.33
184.8,23207.67
187.27,23185.33
189.74,23307.67
192.2,23344.67
194.67,23447.33
197.14,23497.33
199.6,23416.67
202.06,23532
204.53,23539.33
206.99,23501
209.45,23284.71
211.91,23343.52
214.37,23391.31
216.83,23436.52
219.29,23480.77
221.74,23519.85
224.2,23559.87
226.65,23593.21
229.11,23627.72
231.56,23658.93
234.02,23683.9
236.47,23704.95
238.92,23729.52
241.37,23749.28
243.82,23769.17
246.27,23781.11
248.72,23793.57
251.16,23808.25
253.61,23820.08
256.06,23833.68
258.5,23843.75
260.95,23855.51
263.39,23872
265.83,23883.89
268.27,23902.46
270.71,23928.08
273.15,23945.07
275.59,23965.41
278.03,23989.01
280.47,24012.5
282.91,24033.72
285.34,24057.28
287.78,24080.96
290.21,24108.75
292.64,24137.42
295.08,24161.84
297.51,24185.75
299.94,24210.51
302.37,24233.28
304.8,24253.94
307.23,24272.3
309.66,24295.31
312.08,24309.82
314.51,24329.14
316.94,24352.22
319.36,24367.42
321.78,24385.33
324.21,24402.36
326.63,24417.4
329.05,24433.51
331.47,24449.1
333.89,24463.56
336.31,24478.28
338.73,24494.35
341.15,24507.73
343.56,24518.93
345.98,24537.52
348.39,24556.49
350.81,24573.09
353.22,24589.32
355.63,24603.07
358.04,24618.63
360.46,24637.25
362.87,24650.86
365.27,24669.3
367.68,24681.16
370.09,24690.89
372.5,24703.47
374.9,24713.2
377.31,24724.96
379.71,24732.76
382.12,24741.37
384.52,24743.89
386.92,24758.43
389.32,24764.14
391.72,24767.41
394.12,24769.59
396.52,24777.24
398.92,24787.08
401.32,24796.92
403.71,24808.68
406.11,24824.05
408.5,24836.22
410.9,24850.31
413.29,24863.76
415.68,24868.25
418.07,24876.96
420.46,24884.11
422.85,24892.11
425.24,24899.66
427.63,24904.56
430.02,24906.53
432.4,24915.02
434.79,24923.67
437.17,24923.2
439.56,24933.19
441.94,24940.92
444.32,24948.42
446.71,24948.29
449.09,24950.3
451.47,24951.58
453.85,24952.53
456.22,24958.21
458.6,24959.01
460.98,24959.73
463.35,24961.87
465.73,24960.49
468.1,24958.58
470.48,24958.46
472.85,24954.97
475.22,24949.54
477.59,24943.47
479.96,24932.88
482.33,24923.6
484.7,24902
487.07,24895.15
489.44,24878.26
491.8,24865.54
494.17,24847.8
496.53,24828.52
498.9,24815.7
501.26,24793.72
503.62,24774.76
505.98,24752.82
508.34,24736.39
510.7,24711.27
513.06,24694.71
515.42,24679.36
517.78,24660.1
520.14,24646.46
522.49,24629.49
524.85,24609.74
527.2,24598.32
529.55,24579.14
531.91,24556.59
534.26,24536.11
536.61,24508.62
538.96,24479.8
541.31,24451.36
543.66,24427.38
546,24400.57
548.35,24378.27
550.7,24357.48
553.04,24326.24
555.39,24299.45
557.73,24276.28
560.07,24246.62
562.41,24220.85
564.76,24197.45
567.1,24173.33
569.44,24147.76
571.77,24121.15
574.11,24096.24
576.45,24073.44
578.79,24053.5
581.12,24032.85
583.46,24001.84
585.79,23978.83
588.12,23952.73
590.46,23927.39
592.79,23903.71
595.12,23869.52
597.45,23843.48
599.78,23813.78
602.1,23788.5
604.43,23757.21
606.76,23731.29
609.08,23700.98
611.41,23667.84
613.73,23642.76
616.06,23612.13
618.38,23585.33
620.7,23563.54
623.02,23533.22
625.34,23504.86
627.66,23483.74
629.98,23462.44
632.3,23441.91
634.61,23422.73
636.93,23399.72
639.25,23379.89
641.56,23361.81
643.87,23340.92
646.19,23317.7
648.5,23306.28
650.81,23288.91
653.12,23268.11
655.43,23256.63
657.74,23245.58
660.05,23228.44
662.35,23210.98
664.66,23195.89
666.97,23184.93
669.27,23169.76
671.57,23157.52
673.88,23137.16
676.18,23113.96
678.48,23092.98
680.78,23071.82
683.08,23048.39
685.38,23021.8
687.68,22993.43
689.98,22966.19
692.27,22937.72
694.57,22906.1
696.86,22872.42
699.16,22842.37
701.45,22813.01
703.74,22785.62
706.04,22758.98
708.33,22728.15
710.62,22695.76
712.91,22665.8
715.2,22630.58
717.48,22605
719.77,22579.46
722.06,22546.93
724.34,22520.34
726.63,22500.81
728.91,22479.85
731.19,22457.07
733.48,22435.86
735.76,22413.68
738.04,22388.32
740.32,22363.63
742.6,22337.27
744.87,22313.57
747.15,22294.89
749.43,22268.94
751.7,22238.72
753.98,22213.43
756.25,22195.93
758.53,22168.74
760.8,22144.85
763.07,22121.59
765.34,22098.81
767.61,22084.77
769.88,22068.72
772.15,22052.77
774.42,22040.22
776.68,22026.32
778.95,22019.24
781.21,22013.15
783.48,22013.89
785.74,22020.72
788,22029.58
790.27,22037.55
792.53,22044.22
794.79,22054.37
797.05,22067.02
799.31,22079.66
801.56,22092.95
803.82,22108.09
806.08,22119.42
808.33,22132.01
810.59,22135.33
812.84,22139.35
815.1,22145.06
817.35,22152.89
819.6,22154.59
821.85,22160.59
824.1,22176.13
826.35,22185.38
828.6,22196.83
830.84,22210.6
833.09,22230.41
835.34,22250.28
837.58,22266.98
839.83,22279.12
842.07,22292.89
844.31,22309.7
846.55,22319.88
848.8,22315.58
851.04,22322.28
853.27,22320.83
855.51,22316.08
857.75,22304
859.99,22298.63
862.22,22290.12
864.46,22278.17
866.69,22260.86
868.93,22246.34
871.16,22228.78
873.39,22203.84
875.63,22174.41
877.86,22138.59
880.09,22104.93
882.31,22070.76
884.54,22043.24
886.77,22011.29
889,21974.56
891.22,21941.1
893.45,21903.58
895.67,21869.59
897.9,21841.15
900.12,21815.92
902.34,21798.25
904.56,21781.56
906.78,21764.55
909,21739.65
911.22,21714.77
913.44,21683.46
915.65,21649.7
917.87,21622.72
920.08,21599.85
922.3,21575.91
924.51,21544.95
926.73,21508.97
928.94,21472.82
931.15,21435.02
933.36,21400.34
935.57,21372.13
937.78,21348.55
939.99,21335.36
942.19,21321.18
944.4,21307.07
946.61,21293.41
948.81,21285.19
951.02,21265.36
953.22,21255.27
955.42,21249.69
957.62,21255.31
959.82,21263.36
962.02,21269.76
964.22,21285.79
966.42,21301.04
968.62,21313.31
970.82,21325.77
973.01,21336.08
975.21,21346.96
977.4,21361.77
979.6,21378.46
981.79,21402.37
983.98,21423.65
986.17,21442.23
988.36,21457.43
990.55,21470.32
992.74,21480.45
994.93,21488.72
997.12,21502.4
999.3,21519.96
1001.49,21539.17
1003.67,21563.93
1005.86,21589.48
1008.04,21608.95
1010.22,21625.52
1012.41,21645.48
1014.59,21670.65
1016.77,21702.98
1018.95,21744.2
1021.12,21787.52
1023.3,21836.49
1025.48,21878.05
1027.66,21920.07
1029.83,21956.67
1032.01,21995.63
1034.18,22035.37
1036.35,22083.33
1038.52,22130.54
1040.7,22177.89
1042.87,22223.96
1045.04,22263.28
1047.2,22298.17
1049.37,22324.33
1051.54,22350.05
1053.71,22375.06
1055.87,22395.64
1058.04,22417.93
1060.2,22438.47
1062.36,22459.38
1064.53,22469.6
1066.69,22474.84
1068.85,22479.05
1071.01,22467.35
1073.17,22462.8
1075.33,22457.03
1077.49,22453.75
1079.64,22446.28
1081.8,22438.03
1083.95,22435.28
1086.11,22422.54
1088.26,22407.54
1090.42,22385.98
1092.57,22367.38
1094.72,22343.58
1096.87,22319.81
1099.02,22295.35
1101.17,22267.82
1103.32,22229.58
1105.47,22190.07
1107.61,22139.11
1109.76,22088.93
1111.9,22030.54
1114.05,21969.59
1116.19,21908.53
1118.33,21847.48
1120.47,21786.76
1122.62,21719.98
1124.76,21648.09
1126.9,21575.33
1129.03,21500.63
1131.17,21422.08
1133.31,21348.06
1135.45,21264.32
1137.58,21188.04
1139.72,21110.2
1141.85,21027.96
1143.98,20948.52
1146.12,20872.69
1148.25,20794.8
1150.38,20721.24
1152.51,20648.68
1154.64,20577.76
1156.77,20508.47
1158.89,20446.24
1161.02,20383.35
1163.15,20322.31
1165.27,20257.61
1167.4,20196.53
1169.52,20133.23
1171.64,20067.35
1173.76,20010.57
1175.88,19954.63
1178.01,19901.67
1180.13,19850.98
1182.24,19800.67
1184.36,19749.2
1186.48,19696.72
1188.6,19651.33
1190.71,19614.35
1192.83,19575.33
1194.94,19546.94
1197.05,19515.15
1199.17,19485.41
1201.28,19461.4
1203.39,19436.91
1205.5,19417.3
1207.61,19395.43
1209.72,19379.75
1211.82,19365.73
1213.93,19359.18
1216.04,19354.99
1218.14,19354.09
1220.25,19357.37
1222.35,19367.73
1224.45,19372.47
1226.56,19376.63
1228.66,19382.78
1230.76,19391.29
1232.86,19396.37
1234.96,19408.98
1237.06,19414.01
1239.15,19423.09
1241.25,19434.02
1243.35,19449.36
1245.44,19461.36
1247.54,19471.62
1249.63,19479.75
1251.72,19489.47
1253.81,19496.15
1255.91,19504.93
1258,19512.03
1260.09,19519.98
1262.17,19527.93
1264.26,19535.8
1266.35,19538.26
1268.44,19538.28
1270.52,19543.4
1272.61,19552.66
1274.69,19550.32
1276.77,19552.18
1278.86,19553.76
1280.94,19554.24
1283.02,19557.24
1285.1,19564.8
1287.18,19570.28
1289.26,19578.75
1291.34,19587.17
1293.41,19600.24
1295.49,19609.89
1297.56,19618.69
1299.64,19623.41
1301.71,19627.9
1303.79,19635.38
1305.86,19634.69
1307.93,19631.26
1310,19635.34
1312.07,19637.58
1314.14,19638.72
1316.21,19636.14
1318.28,19632.46
1320.34,19623.28
1322.41,19619.74
1324.47,19615.1
1326.54,19608.37
1328.6,19599.37
1330.66,19588.68
1332.73,19579.23
1334.79,19571.35
1336.85,19562.23
1338.91,19551.33
1340.97,19543.73
1343.03,19533.86
1345.08,19516.8
1347.14,19499.46
1349.19,19485
1351.25,19468.1
1353.3,19455.85
1355.36,19442.61
1357.41,19417.51
1359.46,19395.87
1361.51,19368.24
1363.56,19337.94
1365.61,19301.51
1367.66,19268.2
1369.71,19226.55
1371.76,19182.15
1373.8,19136.18
1375.85,19086.04
1377.89,19030.23
1379.94,18977.93
1381.98,18927.13
1384.02,18873.49
1386.07,18829.93
1388.11,18769.62
1390.15,18711.51
1392.19,18655.05
1394.22,18595.22
1396.26,18539.06
1398.3,18484.82
1400.34,18432.86
1402.37,18386.5
1404.41,18342.92
1406.44,18298.45
1408.47,18256.72
1410.51,18219.82
1412.54,18178.69
1414.57,18144.62
1416.6,18112.56
1418.63,18080.55
1420.66,18047.36
1422.68,18017.8
1424.71,17980.46
1426.74,17942.23
1428.76,17903.84
1430.79,17863.23
1432.81,17818.39
1434.83,17769.22
1436.85,17717.32
1438.88,17661.94
1440.9,17612.63
1442.92,17559.56
1444.94,17501.83
1446.95,17445.88
1448.97,17391.34
1450.99,17334.01
1453,17276.89
1455.02,17224.3
1457.03,17169
1459.05,17112.62
1461.06,17058.07
1463.07,17001.48
1465.08,16942.67
1467.09,16886.63
1469.1,16818.53
1471.11,16763.51
1473.12,16709.98
1475.13,16656.43
1477.13,16606.41
1479.14,16553.08
1481.15,16496.41
1483.15,16445.75
1485.15,16390.85
1487.16,16335.59
1489.16,16276.45
1491.16,16211.29
1493.16,16150.02
1495.16,16088.14
1497.16,16023.66
1499.16,15956.07
1501.15,15890.07
1503.15,15828.65
1505.15,15762.66
1507.14,15701.98
1509.14,15644.98
1511.13,15588.59
1513.12,15537.06
1515.11,15486.2
1517.1,15443.59
1519.09,15400.5
1521.08,15359.33
1523.07,15318.25
1525.06,15281.26
1527.05,15252.1
1529.03,15214.6
1531.02,15183.39
1533.01,15150.77
1534.99,15118.53
1536.97,15086.37
1538.96,15056.87
1540.94,15027.79
1542.92,15002.18
1544.9,14972.31
1546.88,14948.15
1548.86,14922.43
1550.84,14900.33
1552.81,14876.07
1554.79,14854.15
1556.76,14831.32
1558.74,14807.85
1560.71,14790.97
1562.69,14771.8
1564.66,14749.73
1566.63,14726.98
1568.6,14699.99
1570.57,14679.85
1572.54,14659.68
1574.51,14631.42
1576.48,14606.43
1578.45,14578.41
1580.41,14551.29
1582.38,14519.97
1584.34,14489.28
1586.31,14463.24
1588.27,14435.31
1590.23,14408.2
1592.19,14386.39
1594.16,14359.5
1596.12,14338.35
1598.07,14311.4
1600.03,14286.11
1601.99,14262.1
1603.95,14237.11
1605.9,14215.14
1607.86,14188.93
1609.82,14168.04
1611.77,14144.07
1613.72,14116.54
1615.68,14095.88
1617.63,14070.79
1619.58,14042.29
1621.53,14017.02
1623.48,13986.11
1625.43,13961.77
1627.37,13933.79
1629.32,13902.37
1631.27,13872.23
1633.21,13843.63
1635.16,13810.57
1637.1,13781.69
1639.05,13751.68
1640.99,13719.33
1642.93,13689.75
1644.87,13659.44
1646.81,13633.65
1648.75,13605.35
1650.69,13574.2
1652.63,13550.83
1654.56,13525.28
1656.5,13497.1
1658.44,13470.46
1660.37,13439.15
1662.31,13416.23
1664.24,13389.32
1666.17,13358.89
1668.1,13330.54
1670.03,13298.46
1671.96,13263.57
1673.89,13235.93
1675.82,13200.85
1677.75,13169.15
1679.68,13140.13
1681.6,13106.98
1683.53,13078.37
1685.46,13047.97
1687.38,13018.96
1689.3,12993.41
1691.23,12966.7
1693.15,12942.24
1695.07,12908.79
1696.99,12881.99
1698.91,12857.72
1700.83,12829.63
1702.75,12801.08
1704.66,12771.14
1706.58,12737.77
1708.5,12708.59
1710.41,12673.95
1712.32,12643.78
1714.24,12613.67
1716.15,12580.62
1718.06,12547.52
1719.97,12515.93
1721.88,12486.67
1723.79,12455.59
1725.7,12422.63
1727.61,12396.44
1729.52,12372.48
1731.43,12345.54
1733.33,12318.15
1735.24,12292.18
1737.14,12264.61
1739.04,12243.3
1740.95,12216.39
1742.85,12189.01
1744.75,12167.59
1746.65,12139.59
1748.55,12113.73
1750.45,12091.9
1752.35,12059.74
1754.25,12032.03
1756.14,12007.98
1758.04,11978.06
1759.93,11949.67
1761.83,11922.06
1763.72,11894.82
1765.61,11865.45
1767.51,11839.68
1769.4,11810.36
1771.29,11786.82
1773.18,11767.45
1775.07,11739.74
1776.96,11713.51
1778.84,11689.72
1780.73,11668.77
1782.62,11648.19
1784.5,11630.35
1786.39,11612.59
1788.27,11597.75
1790.15,11573.4
1792.04,11554.85
1793.92,11538.48
1795.8,11514.26
1797.68,11490.27
1799.56,11461.69
1801.44,11436.67
1803.32,11409.38
1805.19,11379.73
1807.07,11349.74
1808.94,11319.41
1810.82,11290.09
1812.69,11265.11
1814.57,11239.65
1816.44,11215.84
1818.31,11190.46
1820.18,11171.63
1822.05,11146.22
1823.92,11128.74
1825.79,11107.37
1827.66,11083.86
1829.53,11062.29
1831.39,11040.59
1833.26,11022.17
1835.12,10999.63
1836.99,10978.81
1838.85,10957.76
1840.71,10933.78
1842.58,10913.37
1844.44,10886.95
1846.3,10860.93
1848.16,10828.48
1850.02,10798.63
1851.87,10772.76
1853.73,10750.33
1855.59,10723.24
1857.44,10697.21
1859.3,10671.19
1861.15,10647.6
1863.01,10619.13
1864.86,10592.16
1866.71,10572.41
1868.56,10547.38
1870.41,10519.84
1872.26,10498.21
1874.11,10476.11
1875.96,10458.8
1877.81,10433.23
1879.66,10411.17
1881.5,10390.1
1883.35,10366.19
1885.19,10343.07
1887.04,10321.11
1888.88,10295.37
1890.72,10269.81
1892.56,10242.67
1894.41,10219.42
1896.25,10191.97
1898.09,10168.38
1899.92,10143.89
1901.76,10121.77
1903.6,10097.47
1905.44,10078.7
1907.27,10056.68
1909.11,10033.71
1910.94,10012.85
1912.77,9992.93
1914.61,9967.63
1916.44,9945.07
1918.27,9920.24
1920.1,9898.12
1921.93,9876.67
1923.76,9855.67
1925.59,9833.28
1927.41,9811.81
1929.24,9784.54
1931.07,9759.6
1932.89,9736.59
1934.72,9712.67
1936.54,9687.28
1938.36,9661.89
1940.19,9637.16
1942.01,9610.72
1943.83,9589.2
1945.65,9566.83
1947.47,9544.55
1949.29,9522.76
1951.1,9496.54
1952.92,9476.68
1954.74,9455.81
1956.55,9432.54
1958.37,9415.4
1960.18,9392.82
1961.99,9367.11
1963.81,9343.9
1965.62,9322.47
1967.43,9296.02
1969.24,9268.25
1971.05,9241.44
1972.86,9215.02
1974.67,9186.99
1976.47,9162.85
1978.28,9136.92
1980.09,9107.31
1981.89,9082.58
1983.7,9053.93
1985.5,9031.88
1987.3,9007.43
1989.11,8983.68
1990.91,8959.68
1992.71,8937.73
1994.51,8914.54
1996.31,8894.93
1998.11,8873.02
1999.9,8851.05
2001.7,8828.27
2003.5,8807.32
2005.29,8783.91
2007.09,8756.82
2008.88,8728.67
2010.67,8703.07
2012.47,8681.92
2014.26,8659.67
2016.05,8638.41
2017.84,8611.3
2019.63,8584.38
2021.42,8561.94
2023.21,8537.09
2024.99,8518.3
2026.78,8495.65
2028.57,8475.36
2030.35,8452.94
2032.14,8427.82
2033.92,8406.24
2035.7,8389.2
2037.48,8367.21
2039.27,8347.53
2041.05,8330.02
2042.83,8308.44
2044.61,8286.75
2046.38,8263.67
2048.16,8241.54
2049.94,8219.95
2051.71,8196.96
2053.49,8178.89
2055.27,8158
2057.04,8136.06
2058.81,8110.73
2060.59,8086.96
2062.36,8066.14
2064.13,8045.66
2065.9,8026.13
2067.67,8006.21
2069.44,7983.46
2071.21,7964.65
2072.97,7945.5
2074.74,7927.06
2076.51,7904.46
2078.27,7885.35
2080.04,7867.51
2081.8,7851.11
2083.56,7829.16
2085.32,7808.74
2087.09,7787.09
2088.85,7761.54
2090.61,7740.16
2092.37,7719.78
2094.12,7694.54
2095.88,7675.37
2097.64,7650.24
2099.4,7631.77
2101.15,7608.11
2102.91,7589
2104.66,7568.18
2106.41,7547.54
2108.17,7526.11
2109.92,7509.91
2111.67,7487.01
2113.42,7469.47
2115.17,7454.67
2116.92,7436.54
2118.67,7420.98
2120.42,7402.62
2122.16,7377.95
2123.91,7357.02
2125.65,7331.11
2127.4,7308.88
2129.14,7285.46
2130.89,7266.28
2132.63,7243.84
2134.37,7220.76
2136.11,7196.14
2137.85,7170.41
2139.59,7144.76
2141.33,7124.18
2143.07,7104.29
2144.81,7083.11
2146.54,7064.56
2148.28,7047.43
2150.01,7030.02
2151.75,7009.19
2153.48,6991.2
2155.22,6976.62
2156.95,6957.77
2158.68,6939.42
2160.41,6925.36
2162.14,6906.32
2163.87,6891.25
2165.6,6877.5
2167.33,6856.53
2169.05,6838.42
2170.78,6815.91
2172.51,6797.15
2174.23,6774.4
2175.96,6754.28
2177.68,6736.5
2179.4,6714.71
2181.12,6692.43
2182.85,6674.31
2184.57,6652.39
2186.29,6631.37
2188.01,6609.7
2189.72,6589.59
2191.44,6571.54
2193.16,6555.86
2194.87,6540.5
2196.59,6528.63
2198.31,6510.37
2200.02,6495.47
2201.73,6477
2203.45,6460.2
2205.16,6443.41
2206.87,6427.13
2208.58,6410.08
2210.29,6395.48
2212,6374.01
2213.71,6356.18
2215.41,6338.4
2217.12,6314.41
2218.83,6296.14
2220.53,6276.15
2222.24,6257.33
2223.94,6236.39
2225.64,6214.38
2227.35,6196.34
2229.05,6179.89
2230.75,6159.65
2232.45,6143.37
2234.15,6127.06
2235.85,6107.44
2237.55,6092.05
2239.24,6074.94
2240.94,6056.85
2242.64,6039.73
2244.33,6023.06
2246.03,6004.2
2247.72,5984.73
2249.41,5971.41
2251.11,5951.24
2252.8,5932.44
2254.49,5915.03
2256.18,5895.04
2257.87,5878.45
2259.56,5859.93
2261.25,5839.17
2262.93,5820.42
2264.62,5803.76
2266.31,5783.78
2267.99,5769.24
2269.68,5752.82
2271.36,5735.27
2273.04,5720.29
2274.73,5704.8
2276.41,5688.31
2278.09,5672.8
2279.77,5661.08
2281.45,5647.99
2283.13,5630.96
2284.8,5613.78
2286.48,5600.98
2288.16,5584.2
2289.83,5570.99
2291.51,5558.07
2293.18,5543.67
2294.86,5529
2296.53,5512.12
2298.2,5495.59
2299.88,5481
2301.55,5464.4
2303.22,5443.98
2304.89,5429.18
2306.55,5414.76
2308.22,5402.29
2309.89,5392.29
2311.56,5376.75
2313.22,5366.11
2314.89,5354.11
2316.55,5340.41
2318.22,5325.65
2319.88,5312.07
2321.54,5301.04
2323.2,5286.94
2324.86,5273.67
2326.52,5261.35
2328.18,5247.46
2329.84,5234.11
2331.5,5219.93
2333.16,5204.48
2334.81,5191.01
2336.47,5174.85
2338.12,5159.78
2339.78,5148.96
2341.43,5135.77
2343.09,5121.15
2344.74,5110.64
2346.39,5105.25
2348.04,5089.73
2349.69,5075.91
2351.34,5064
2352.99,5051.7
2354.64,5039.07
2356.28,5029.73
2357.93,5016.06
2359.58,5004.28
2361.22,4995.26
2362.87,4985.03
2364.51,4973.52
2366.15,4963.6
2367.8,4950.87
2369.44,4939.98
2371.08,4928.16
2372.72,4912.46
2374.36,4897.25
2376,4881.68
2377.64,4869.61
2379.27,4855.91
2380.91,4840.83
2382.55,4827.23
2384.18,4814.99
2385.82,4802.33
2387.45,4788.73
2389.08,4774.8
2390.71,4761.89
2392.35,4749.63
2393.98,4735.25
2395.61,4726.49
2397.24,4718.08
2398.87,4703.63
2400.49,4694.97
2402.12,4680.74
2403.75,4669.37
2405.37,4657.54
2407,4646.07
2408.62,4630.75
2410.25,4619.06
2411.87,4605.14
2413.49,4582.29
2415.12,4564.09
2416.74,4549.41
2418.36,4533.35
2419.98,4519.21
2421.6,4509.35
2423.21,4493.45
2424.83,4479.6
2426.45,4465.37
2428.07,4448.76
2429.68,4433.07
2431.3,4419.51
2432.91,4403.84
2434.52,4389.08
2436.14,4375.62
2437.75,4363.63
2439.36,4351.87
2440.97,4340.87
2442.58,4326.94
2444.19,4310.28
2445.8,4298.94
2447.4,4284.44
2449.01,4271.47
2450.62,4259.02
2452.22,4245.89
2453.83,4234.15
2455.43,4219.4
2457.04,4209.31
2458.64,4199.28
2460.24,4188.52
2461.84,4173.85
2463.44,4158.07
2465.04,4150.09
2466.64,4133.24
2468.24,4122.04
2469.84,4105.99
2471.44,4091.2
2473.03,4076.26
2474.63,4069.96
2476.22,4056.87
2477.82,4045.33
2479.41,4036.26
2481,4026.08
2482.6,4013.32
2484.19,4005.61
2485.78,3994.39
2487.37,3978.8
2488.96,3965.97
2490.55,3957.29
2492.14,3947.78
2493.72,3935.12
2495.31,3925.77
2496.9,3915.9
2498.48,3902.57
2500.07,3895.11
2501.65,3884.53
2503.23,3873.75
2504.82,3873.78
2506.4,3861.5
2507.98,3853.85
2509.56,3842.8
2511.14,3834.52
2512.72,3825.85
2514.3,3817.42
2515.87,3802.22
2517.45,3790.93
2519.03,3782.21
2520.6,3773.72
2522.18,3761.03
2523.75,3749.4
2525.32,3737.6
2526.9,3725.27
2528.47,3715.45
2530.04,3706.42
2531.61,3698.07
2533.18,3688.08
2534.75,3680.52
2536.32,3672.07
2537.89,3661.78
2539.45,3647.65
2541.02,3637.3
2542.59,3629.52
2544.15,3619.82
2545.72,3611.28
2547.28,3605.54
2548.84,3595.2
2550.41,3587.04
2551.97,3574.93
2553.53,3564.39
2555.09,3553.49
2556.65,3544.97
2558.21,3537.99
2559.76,3527.25
2561.32,3518.42
2562.88,3508.99
2564.43,3498.02
2565.99,3490.56
2567.54,3482.33
2569.1,3461.91
2570.65,3452.02
2572.2,3443.15
2573.76,3435.38
2575.31,3425.01
2576.86,3420.93
2578.41,3409.59
2579.96,3402.36
2581.51,3391.42
2583.05,3382.59
2584.6,3375.64
2586.15,3365.82
2587.69,3356.93
2589.24,3350.59
2590.78,3342.47
2592.33,3335.95
2593.87,3327.35
2595.41,3317.63
2596.95,3311.33
2598.49,3304.71
2600.03,3298.71
2601.57,3290.12
2603.11,3281.69
2604.65,3276.83
2606.19,3265.28
2607.72,3259.07
2609.26,3249.97
2610.8,3242.71
2612.33,3233.29
2613.86,3230.34
2615.4,3225.6
2616.93,3219.21
2618.46,3210.81
2619.99,3202.4
2621.52,3196.28
2623.05,3190.41
2624.58,3180.01
2626.11,3176.8
2627.64,3168.09
2629.17,3158.8
2630.69,3153.06
2632.22,3146.34
2633.74,3138.85
2635.27,3125.45
2636.79,3117.95
2638.32,3111.11
2639.84,3099.52
2641.36,3095.34
2642.88,3091.8
2644.4,3087.37
2645.92,3079.76
2647.44,3070.28
2648.96,3070.09
2650.47,3062.51
2651.99,3052.7
2653.51,3043.4
2655.02,3033.27
2656.54,3024.05
2658.05,3016.96
2659.57,3005.91
2661.08,2994.51
2662.59,2988.8
2664.1,2984.82
2665.61,2979.8
2667.12,2972.17
2668.63,2964.98
2670.14,2958.94
2671.65,2957.11
2673.16,2948.83
2674.66,2943.48
2676.17,2932.32
2677.67,2924.07
2679.18,2916.43
2680.68,2911.56
2682.18,2903.54
2683.69,2894.15
2685.19,2888.94
2686.69,2885.55
2688.19,2875.8
2689.69,2871.5
2691.19,2864.42
2692.69,2854.83
2694.19,2850.55
2695.68,2846.89
2697.18,2844.69
2698.68,2840.13
2700.17,2833.31
2701.66,2825.58
2703.16,2817.26
2704.65,2810.11
2706.14,2802.7
2707.64,2792.99
2709.13,2789.25
2710.62,2777.58
2712.11,2773.3
2713.59,2771.18
2715.08,2767.14
2716.57,2761.48
2718.06,2755.54
2719.54,2749.6
2721.03,2747.85
2722.51,2747.89
2724,2736.6
2725.48,2728.27
2726.96,2722.76
2728.45,2714.15
2729.93,2711.02
2731.41,2700.28
2732.89,2689.92
2734.37,2683.69
2735.85,2677.82
2737.33,2669.55
2738.8,2664.7
2740.28,2660.72
2741.76,2655.34
2743.23,2645.89
2744.71,2640.37
2746.18,2633.6
2747.65,2626.72
2749.13,2619.93
2750.6,2612.59
2752.07,2606.38
2753.54,2600.15
2755.01,2591.25
2756.48,2583.24
2757.95,2579.47
2759.42,2572.83
2760.88,2565.37
2762.35,2562.31
2763.82,2558.73
2765.28,2552.19
2766.75,2546.13
2768.21,2545.11
2769.67,2538.29
2771.14,2532.53
2772.6,2525.07
2774.06,2518.83
2775.52,2514.94
2776.98,2513.66
2778.44,2508.72
2779.9,2504.67
2781.35,2498.26
2782.81,2491.92
2784.27,2487.56
2785.72,2482.41
2787.18,2478.98
2788.63,2477.96
2790.09,2474.07
2791.54,2474.67
2792.99,2472.15
2794.45,2468.79
2795.9,2466.62
2797.35,2463.41
2798.8,2461.59
2800.25,2455.59
2801.69,2451.2
2803.14,2452.78
2804.59,2451.32
2806.04,2445.47
2807.48,2440
2808.93,2439.81
2810.37,2439.8
2811.81,2439.48
2813.26,2439.28
2814.7,2438.64
2816.14,2438.25
2817.58,2438.85
2819.02,2437.64
2820.46,2442.75
2821.9,2444.2
2823.34,2443.37
2824.78,2446.76
2826.22,2454.48
2827.65,2459.41
2829.09,2463.08
2830.52,2466.87
2831.96,2473.94
2833.39,2479.93
2834.82,2486.03
2836.26,2488.57
2837.69,2496.78
2839.12,2505.77
2840.55,2512.8
2841.98,2522.92
2843.41,2535.1
2844.84,2549.38
2846.27,2559.53
2847.69,2573.09
2849.12,2587.63
2850.55,2601.55
2851.97,2619.45
2853.39,2637.07
2854.82,2657.1
2856.24,2678.67
2857.66,2699.55
2859.09,2722.8
2860.51,2741.83
2861.93,2762.89
2863.35,2783.63
2864.77,2807.41
2866.19,2833.27
2867.6,2859.03
2869.02,2883.75
2870.44,2909.63
2871.85,2935.95
2873.27,2979.58
2874.68,3003.36
2876.1,3032.87
2877.51,3058.91
2878.92,3080.41
2880.33,3102.8
2881.74,3130.44
2883.16,3156.36
2884.57,3177.76
2885.97,3203.37
2887.38,3228.46
2888.79,3255.16
2890.2,3275.93
2891.6,3299.02
2893.01,3324.56
2894.42,3348.87
2895.82,3372.98
2897.22,3395.87
2898.63,3418.39
2900.03,3437.74
2901.43,3457.95
2902.83,3472.83
2904.23,3491.06
2905.63,3507.59
2907.03,3523.98
2908.43,3538.42
2909.83,3551.21
2911.23,3564.63
2912.62,3570.85
2914.02,3579.07
2915.42,3583.97
2916.81,3591.68
2918.2,3600.43
2919.6,3603.87
2920.99,3604.73
2922.38,3605.24
2923.77,3605.98
2925.16,3601.92
2926.55,3595.8
2927.94,3588.38
2929.33,3578.14
2930.72,3552.65
2932.11,3541.75
2933.5,3524.46
2934.88,3509.85
2936.27,3494.98
2937.65,3479.15
2939.04,3460.65
2940.42,3438.86
2941.8,3418.46
2943.18,3392.17
2944.57,3370.46
2945.95,3344.14
2947.33,3318.93
2948.71,3290.5
2950.09,3257.47
2951.46,3227.54
2952.84,3195.77
2954.22,3162.22
2955.6,3131.19
2956.97,3097.92
2958.35,3067.58
2959.72,3037.68
2961.09,2999.63
2962.47,2964.21
2963.84,2927.17
2965.21,2887.72
2966.58,2847.17
2967.95,2804.28
2969.32,2767.15
2970.69,2728.81
2972.06,2689.06
2973.43,2650.18
2974.8,2606.47
2976.16,2564.93
2977.53,2527.63
2978.89,2494.01
2980.26,2455.27
2981.62,2419.62
2982.98,2383.47
2984.35,2348.44
2985.71,2313.33
2987.07,2278.58
2988.43,2247.6
2989.79,2211.72
2991.15,2180.2
2992.51,2147.56
2993.87,2115.22
2995.22,2081.66
2996.58,2051.89
2997.94,2022.46
2999.29,1992.98
3000.65,1964.2
3002,1937
3003.36,1912.66
3004.71,1889.55
3006.06,1870.06
3007.41,1847.74
3008.76,1825.61
3010.11,1804.36
3011.46,1783.49
3012.81,1761.27
3014.16,1737.81
3015.51,1716.05
3016.85,1701.95
3018.2,1681.32
3019.55,1661.92
3020.89,1646.66
3022.24,1631.93
3023.58,1618.19
3024.92,1604.63
3026.27,1590.5
3027.61,1578.32
3028.95,1563.2
3030.29,1552.66
3031.63,1546.24
3032.97,1534.4
3034.31,1520.54
3035.65,1506.32
3036.98,1492.82
3038.32,1482.85
3039.66,1475.7
3040.99,1468.82
3042.33,1458.79
3043.66,1447.97
3044.99,1444.06
3046.33,1434.58
3047.66,1427.84
3048.99,1424.24
3050.32,1422.1
3051.65,1418.65
3052.98,1413.41
3054.31,1409.91
3055.64,1406.07
3056.96,1401.52
3058.29,1395.94
3059.62,1389.37
3060.94,1383.72
3062.27,1381.94
3063.59,1375.3
3064.92,1369.72
3066.24,1366.3
3067.56,1364.78
3068.88,1359.8
3070.21,1351.48
3071.53,1344.47
3072.85,1341.46
3074.17,1337.86
3075.48,1335.67
3076.8,1334.22
3078.12,1330.88
3079.44,1323.98
3080.75,1320.19
3082.07,1317.41
3083.38,1314.69
3084.7,1315.07
3086.01,1307.89
3087.32,1305.76
3088.64,1302.85
3089.95,1302.94
3091.26,1299.19
3092.57,1293.72
3093.88,1291.79
3095.19,1285.7
3096.5,1283.62
3097.8,1283.04
3099.11,1277.17
3100.42,1275.1
3101.72,1272
3103.03,1266.79
3104.33,1261.78
3105.64,1254.91
3106.94,1250.84
3108.24,1248.86
3109.54,1243.93
3110.84,1245.24
3112.15,1244.63
3113.45,1242.51
3114.75,1238.43
3116.04,1232.86
3117.34,1230.16
3118.64,1229.27
3119.94,1224.06
3121.23,1217.39
3122.53,1213.95
3123.82,1215.11
3125.12,1215.78
3126.41,1214.14
3127.7,1211.85
3129,1207.64
3130.29,1203.46
3131.58,1203.12
3132.87,1202.93
3134.16,1198.92
3135.45,1196.62
3136.74,1194.53
3138.03,1188.57
3139.31,1187.6
3140.6,1186.33
3141.89,1183.74
3143.17,1181.84
3144.46,1185.17
3145.74,1187.02
3147.02,1179.46
3148.31,1180.38
3149.59,1175.18
3150.87,1168.91
3152.15,1166.5
3153.43,1165.94
3154.71,1162.82
3155.99,1163.44
3157.27,1162.63
3158.55,1159.77
3159.82,1158.8
3161.1,1157.2
3162.38,1155.51
3163.65,1150.33
3164.93,1144.8
3166.2,1140.18
3167.47,1139.38
3168.75,1142.13
3170.02,1143.04
3171.29,1141.34
3172.56,1139.34
3173.83,1140.15
3175.1,1141.73
3176.37,1143.33
3177.64,1140.87
3178.91,1138.72
3180.17,1135.13
3181.44,1133.19
3182.7,1130.84
3183.97,1127.92
3185.23,1122.8
3186.5,1124.2
3187.76,1120.64
3189.02,1116.5
3190.29,1111.98
3191.55,1026
3192.81,1167
3194.07,1303
3195.33,1162.33
3196.59,1139
3197.85,1044.67
3199.1,1069.67
3200.36,1149
3201.62,1223
3202.87,1173
3204.13,1116
3205.38,1027
3206.63,1073.33
3207.89,1081.33
3209.14,1091
3210.39,989.33
3211.64,1185.33
3212.89,1006.67
3214.14,1010
3215.39,943.67
