Wavenumber [cm-1],Raman Intensity
160.07,8551.33
162.55,8574
165.03,8636
167.5,8701.67
169.97,8753
172.45,8862
174.92,8896.33
177.39,8925.67
179.86,9005.33
182.33,8992.67
184.8,9113.33
187.27,9170
189.74,9199.33
192.2,9227.33
194.67,9205.67
197.14,9245
199.6,9282.67
202.06,9289.67
204.53,9298.67
206.99,9211.67
209.45,9152.51
211.91,9172.14
214.37,9190.52
216.83,9209
219.29,9226.47
221.74,9243.59
224.2,9257.66
226.65,9272.13
229.11,9285.64
231.56,9295.08
234.02,9304.74
236.47,9309.61
238.92,9311.39
241.37,9311.78
243.82,9308.65
246.27,9304.34
248.72,9299.32
251.16,9290.84
253.61,9281.97
256.06,9272.13
258.5,9264.6
260.95,9255.45
263.39,9245.43
265.83,9236.25
268.27,9226.77
270.71,9217.5
273.15,9209.54
275.59,9202.07
278.03,9194.26
280.47,9185.65
282.91,9177.08
285.34,9166.72
287.78,9156.22
290.21,9146.48
292.64,9136.87
295.08,9129.25
297.51,9123.97
299.94,9120.2
302.37,9117.93
304.8,9118.85
307.23,9120.76
309.66,9122.12
312.08,9123.76
314.51,9123.72
316.94,9118.39
319.36,9109.96
321.78,9098.43
324.21,9084.19
326.63,9068.9
329.05,9053.54
331.47,9037.03
333.89,9021.35
336.31,9007.28
338.73,8994.76
341.15,8981.85
343.56,8973.07
345.98,8964.98
348.39,8957.57
350.81,8951.26
353.22,8943.36
355.63,8935.46
358.04,8929.55
360.46,8921.46
362.87,8916.59
365.27,8910.67
367.68,8904.3
370.09,8898.71
372.5,8892.15
374.9,8887.61
377.31,8881.15
379.71,8876.18
382.12,8872.46
384.52,8871.69
386.92,8869.38
389.32,8869.74
391.72,8869.25
394.12,8867.67
396.52,8863.35
398.92,8854.93
401.32,8842.76
403.71,8826.13
406.11,8804.9
408.5,8784.2
410.9,8763.5
413.29,8743.07
415.68,8725.87
418.07,8709.8
420.46,8696.76
422.85,8686.2
425.24,8674.93
427.63,8662.3
430.02,8654.33
432.4,8644.68
434.79,8634.67
437.17,8625.46
439.56,8616.27
441.94,8606.11
444.32,8596.92
446.71,8587.65
449.09,8578.8
451.47,8571.13
453.85,8564.43
456.22,8555.2
458.6,8547.59
460.98,8538.7
463.35,8529.96
465.73,8521.38
468.1,8513.46
470.48,8504.66
472.85,8495.15
475.22,8483.38
477.59,8470.62
479.96,8456.76
482.33,8440.93
484.7,8426.87
487.07,8406.45
489.44,8387.98
491.8,8368.41
494.17,8349.46
496.53,8331.31
498.9,8314.76
501.26,8299.63
503.62,8286.15
505.98,8273.2
508.34,8260.82
510.7,8251.42
513.06,8240.82
515.42,8232.12
517.78,8222.8
520.14,8214.1
522.49,8205.39
524.85,8197.23
527.2,8188.14
529.55,8181.1
531.91,8173.31
534.26,8166.25
536.61,8157.59
538.96,8149.06
541.31,8140.5
543.66,8130.89
546,8122.16
548.35,8113.55
550.7,8103.6
553.04,8095.77
555.39,8087.92
557.73,8078.93
560.07,8070.21
562.41,8061.52
564.76,8053.42
567.1,8045.56
569.44,8036.39
571.77,8030.88
574.11,8025.37
576.45,8020.12
578.79,8013.83
581.12,8007.01
583.46,8003.11
585.79,7998.32
588.12,7994.11
590.46,7988.84
592.79,7983.62
595.12,7979.06
597.45,7975.3
599.78,7971.67
602.1,7968
604.43,7964.01
606.76,7958.85
609.08,7954.67
611.41,7951.16
613.73,7946.49
616.06,7941.98
618.38,7937.54
620.7,7934.54
623.02,7931.11
625.34,7925.75
627.66,7920.67
629.98,7915.28
632.3,7913.2
634.61,7911.68
636.93,7908.98
639.25,7906.81
641.56,7903.3
643.87,7900.32
646.19,7899.05
648.5,7895.73
650.81,7893.01
653.12,7890.2
655.43,7889.02
657.74,7885.64
660.05,7881.54
662.35,7878.7
664.66,7875.84
666.97,7871.2
669.27,7865.89
671.57,7859.99
673.88,7854.9
676.18,7848.8
678.48,7840.59
680.78,7832.45
683.08,7823.85
685.38,7814.12
687.68,7805.86
689.98,7795.25
692.27,7785.12
694.57,7774.96
696.86,7762.18
699.16,7750.72
701.45,7739.24
703.74,7727.96
706.04,7715.59
708.33,7703.43
710.62,7692.17
712.91,7680.87
715.2,7669.18
717.48,7656.11
719.77,7644.16
722.06,7633.47
724.34,7621.64
726.63,7606.73
728.91,7592.83
731.19,7579.49
733.48,7564.37
735.76,7550.85
738.04,7537.09
740.32,7523.17
742.6,7509.06
744.87,7494.33
747.15,7479.66
749.43,7464.16
751.7,7449.8
753.98,7435.02
756.25,7418.26
758.53,7403.4
760.8,7387.53
763.07,7373.38
765.34,7358.2
767.61,7342.74
769.88,7328.78
772.15,7317
774.42,7303.66
776.68,7291.33
778.95,7278.91
781.21,7266.87
783.48,7255.84
785.74,7244.59
788,7233.21
790.27,7225.11
792.53,7215.85
794.79,7206.24
797.05,7195.88
799.31,7185.36
801.56,7175.57
803.82,7165.05
806.08,7156.38
808.33,7146.07
810.59,7136.16
812.84,7126.83
815.1,7116.63
817.35,7106.63
819.6,7099.31
821.85,7089.33
824.1,7079.98
826.35,7071.29
828.6,7062.32
830.84,7053.36
833.09,7042.95
835.34,7033.39
837.58,7023.85
839.83,7014.37
842.07,7003.21
844.31,6993.69
846.55,6983.37
848.8,6974.3
851.04,6963.9
853.27,6954.88
855.51,6944.67
857.75,6935.33
859.99,6924.92
862.22,6914.5
864.46,6904.65
866.69,6895.84
868.93,6886.52
871.16,6877.09
873.39,6867.5
875.63,6858.12
877.86,6846.98
880.09,6835.82
882.31,6824.11
884.54,6813.24
886.77,6803.2
889,6795.73
891.22,6787.12
893.45,6776.89
895.67,6766.19
897.9,6753.61
900.12,6742.4
902.34,6733.32
904.56,6723.86
906.78,6715.26
909,6704.89
911.22,6693.91
913.44,6682.87
915.65,6670.46
917.87,6659.17
920.08,6649.29
922.3,6640
924.51,6631.79
926.73,6622.6
928.94,6612.9
931.15,6603.15
933.36,6592.75
935.57,6583.5
937.78,6575.12
939.99,6567.48
942.19,6559.67
944.4,6552.55
946.61,6543.97
948.81,6535.76
951.02,6529.15
953.22,6521.19
955.42,6513.43
957.62,6505.02
959.82,6497.1
962.02,6490.26
964.22,6482.69
966.42,6475.85
968.62,6468.88
970.82,6460.49
973.01,6452.4
975.21,6443.6
977.4,6435.41
979.6,6425.41
981.79,6416.75
983.98,6410.26
986.17,6404
988.36,6396.7
990.55,6389.54
992.74,6380.39
994.93,6371.03
997.12,6362.11
999.3,6354.3
1001.49,6347.83
1003.67,6341.33
1005.86,6336.01
1008.04,6333.2
1010.22,6327.75
1012.41,6321.26
1014.59,6314.81
1016.77,6311.22
1018.95,6308.72
1021.12,6309.07
1023.3,6310.76
1025.48,6311.12
1027.66,6313.12
1029.83,6314.68
1032.01,6317.46
1034.18,6321.72
1036.35,6329.12
1038.52,6338.02
1040.7,6346.31
1042.87,6354.68
1045.04,6361.63
1047.2,6364.54
1049.37,6364.14
1051.54,6363.13
1053.71,6358.49
1055.87,6353.93
1058.04,6349.11
1060.2,6344.86
1062.36,6339.47
1064.53,6333.76
1066.69,6327.34
1068.85,6319.87
1071.01,6313.01
1073.17,6304.07
1075.33,6294.8
1077.49,6286.94
1079.64,6279.43
1081.8,6273.02
1083.95,6264.66
1086.11,6256.03
1088.26,6247.49
1090.42,6238.06
1092.57,6228.11
1094.72,6218.37
1096.87,6205.86
1099.02,6196.28
1101.17,6184.84
1103.32,6174.27
1105.47,6162.57
1107.61,6149.64
1109.76,6135.79
1111.9,6120.39
1114.05,6104.77
1116.19,6087.19
1118.33,6069.22
1120.47,6049.29
1122.62,6027.68
1124.76,6004.92
1126.9,5981.37
1129.03,5957.09
1131.17,5932.85
1133.31,5909.01
1135.45,5890.04
1137.58,5874.67
1139.72,5860.18
1141.85,5850.82
1143.98,5838.71
1146.12,5828.42
1148.25,5819.39
1150.38,5810.95
1152.51,5803.64
1154.64,5796.76
1156.77,5789.98
1158.89,5782.93
1161.02,5776.66
1163.15,5769.75
1165.27,5764.93
1167.4,5759.28
1169.52,5754.82
1171.64,5750.47
1173.76,5745.45
1175.88,5740.93
1178.01,5736.07
1180.13,5731.3
1182.24,5727.87
1184.36,5723.59
1186.48,5717.76
1188.6,5714.87
1190.71,5711.23
1192.83,5705.91
1194.94,5700.81
1197.05,5695.02
1199.17,5691.41
1201.28,5688.18
1203.39,5685.33
1205.5,5682.11
1207.61,5679.22
1209.72,5675.44
1211.82,5671.33
1213.93,5664.9
1216.04,5660.33
1218.14,5655.41
1220.25,5650.47
1222.35,5645.54
1224.45,5639.97
1226.56,5633.36
1228.66,5624.87
1230.76,5618.41
1232.86,5611.88
1234.96,5605.32
1237.06,5599.21
1239.15,5592.72
1241.25,5584.89
1243.35,5578.16
1245.44,5571.39
1247.54,5566.11
1249.63,5560.98
1251.72,5554.05
1253.81,5548.02
1255.91,5540.43
1258,5533.64
1260.09,5526.87
1262.17,5520.41
1264.26,5515.48
1266.35,5511.06
1268.44,5505.1
1270.52,5499.59
1272.61,5494.33
1274.69,5488.34
1276.77,5481.56
1278.86,5475.67
1280.94,5471.02
1283.02,5467.02
1285.1,5461.57
1287.18,5456.13
1289.26,5449.98
1291.34,5444.24
1293.41,5438.04
1295.49,5434.41
1297.56,5429.15
1299.64,5424.96
1301.71,5420.21
1303.79,5413.54
1305.86,5407.64
1307.93,5400.82
1310,5392.63
1312.07,5386.26
1314.14,5379.75
1316.21,5372.76
1318.28,5366.43
1320.34,5358.94
1322.41,5350.41
1324.47,5342.54
1326.54,5335.6
1328.6,5328.15
1330.66,5320.07
1332.73,5310.31
1334.79,5302.04
1336.85,5292.18
1338.91,5282.76
1340.97,5273.71
1343.03,5265.13
1345.08,5255.59
1347.14,5246.44
1349.19,5235.9
1351.25,5225.75
1353.3,5216.19
1355.36,5205.83
1357.41,5194.71
1359.46,5183.83
1361.51,5172.74
1363.56,5161.68
1365.61,5150.46
1367.66,5138.18
1369.71,5127.17
1371.76,5115.1
1373.8,5102.8
1375.85,5092.14
1377.89,5082.11
1379.94,5070.85
1381.98,5060.15
1384.02,5049.88
1386.07,5038.39
1388.11,5031.11
1390.15,5022.97
1392.19,5016.03
1394.22,5009.94
1396.26,5002.91
1398.3,4996.38
1400.34,4990.72
1402.37,4983.76
1404.41,4979.33
1406.44,4974.2
1408.47,4967.56
1410.51,4961.24
1412.54,4955.25
1414.57,4949.46
1416.6,4943.35
1418.63,4935.73
1420.66,4929.79
1422.68,4923.14
1424.71,4915.26
1426.74,4907.63
1428.76,4900.07
1430.79,4891.65
1432.81,4882.67
1434.83,4873.8
1436.85,4863.73
1438.88,4853.49
1440.9,4843.09
1442.92,4833.35
1444.94,4823.8
1446.95,4813.54
1448.97,4802.41
1450.99,4792.09
1453,4783.16
1455.02,4772.68
1457.03,4762.39
1459.05,4751.16
1461.06,4739.3
1463.07,4727.83
1465.08,4717.06
1467.09,4704.72
1469.1,4693.47
1471.11,4681.43
1473.12,4668.3
1475.13,4653.84
1477.13,4639.72
1479.14,4625.33
1481.15,4611.12
1483.15,4595.46
1485.15,4579.54
1487.16,4562.42
1489.16,4546.93
1491.16,4532.39
1493.16,4517.28
1495.16,4501.98
1497.16,4486.76
1499.16,4472.44
1501.15,4458.3
1503.15,4445.27
1505.15,4431.15
1507.14,4418.35
1509.14,4405.1
1511.13,4392.79
1513.12,4380.37
1515.11,4368.27
1517.1,4355.62
1519.09,4345.46
1521.08,4335.2
1523.07,4323.78
1525.06,4312.12
1527.05,4299.69
1529.03,4288.07
1531.02,4276.64
1533.01,4265.33
1534.99,4252.18
1536.97,4240.84
1538.96,4229.09
1540.94,4216.91
1542.92,4205.57
1544.9,4194.86
1546.88,4183.41
1548.86,4172.62
1550.84,4162.27
1552.81,4150.75
1554.79,4140.37
1556.76,4130.86
1558.74,4122.37
1560.71,4112.95
1562.69,4103.13
1564.66,4094.9
1566.63,4086.72
1568.6,4079.09
1570.57,4070.13
1572.54,4060.79
1574.51,4051.39
1576.48,4041.65
1578.45,4030.89
1580.41,4022.06
1582.38,4013.01
1584.34,4002.24
1586.31,3992.76
1588.27,3982.37
1590.23,3973.25
1592.19,3963.15
1594.16,3953.94
1596.12,3943.97
1598.07,3936.45
1600.03,3926.89
1601.99,3918.72
1603.95,3910.82
1605.9,3903.2
1607.86,3897.48
1609.82,3890.46
1611.77,3883.64
1613.72,3876.68
1615.68,3869.02
1617.63,3861.54
1619.58,3855.13
1621.53,3847.49
1623.48,3839.57
1625.43,3831.02
1627.37,3822.49
1629.32,3815.43
1631.27,3808.13
1633.21,3800.61
1635.16,3793.69
1637.1,3785.57
1639.05,3775.88
1640.99,3769.11
1642.93,3761.02
1644.87,3752.46
1646.81,3743.6
1648.75,3735.07
1650.69,3727.3
1652.63,3718.42
1654.56,3709.46
1656.5,3701.24
1658.44,3693.03
1660.37,3683.98
1662.31,3673.39
1664.24,3662.36
1666.17,3653.03
1668.1,3643.71
1670.03,3632.91
1671.96,3623.6
1673.89,3612.02
1675.82,3602.45
1677.75,3591.7
1679.68,3581.11
1681.6,3570.06
1683.53,3560.39
1685.46,3549.54
1687.38,3538.77
1689.3,3528.61
1691.23,3517.75
1693.15,3507
1695.07,3497.05
1696.99,3486
1698.91,3474.95
1700.83,3463.38
1702.75,3452.75
1704.66,3441.08
1706.58,3431.13
1708.5,3419.43
1710.41,3408.02
1712.32,3396.31
1714.24,3384.59
1716.15,3373.1
1718.06,3362.67
1719.97,3350.83
1721.88,3340.04
1723.79,3329.85
1725.7,3321
1727.61,3310.47
1729.52,3300.52
1731.43,3291.72
1733.33,3283.94
1735.24,3275.46
1737.14,3267.89
1739.04,3258.41
1740.95,3251.33
1742.85,3245.27
1744.75,3236.66
1746.65,3229.28
1748.55,3221.04
1750.45,3211.47
1752.35,3204.2
1754.25,3195.62
1756.14,3186.7
1758.04,3176.72
1759.93,3168.8
1761.83,3159.72
1763.72,3151.54
1765.61,3143.2
1767.51,3134.63
1769.4,3127.8
1771.29,3119.1
1773.18,3110.43
1775.07,3103.78
1776.96,3096.59
1778.84,3090.85
1780.73,3084.72
1782.62,3078.89
1784.5,3071.46
1786.39,3065.09
1788.27,3057.43
1790.15,3051.23
1792.04,3043.87
1793.92,3036.65
1795.8,3029.93
1797.68,3022.6
1799.56,3015.7
1801.44,3007.8
1803.32,2999.84
1805.19,2991.58
1807.07,2983.5
1808.94,2975.2
1810.82,2966.15
1812.69,2958.2
1814.57,2950.28
1816.44,2943.58
1818.31,2936.84
1820.18,2928.73
1822.05,2921.71
1823.92,2913.7
1825.79,2907.41
1827.66,2902.6
1829.53,2895.98
1831.39,2889.95
1833.26,2883.11
1835.12,2877.6
1836.99,2869.71
1838.85,2862.24
1840.71,2854.54
1842.58,2846.14
1844.44,2837.4
1846.3,2827.79
1848.16,2820.27
1850.02,2812.56
1851.87,2803.8
1853.73,2795.11
1855.59,2785.89
1857.44,2776.76
1859.3,2768.11
1861.15,2760.5
1863.01,2752.52
1864.86,2745.37
1866.71,2737.37
1868.56,2730.96
1870.41,2723.81
1872.26,2715.97
1874.11,2707.71
1875.96,2699.29
1877.81,2692.28
1879.66,2684.16
1881.5,2676.55
1883.35,2668.37
1885.19,2660.66
1887.04,2653.9
1888.88,2647.11
1890.72,2640.76
1892.56,2633.79
1894.41,2627.23
1896.25,2621.29
1898.09,2614.87
1899.92,2608.61
1901.76,2602.5
1903.6,2595.76
1905.44,2589.46
1907.27,2583.34
1909.11,2577.21
1910.94,2570.87
1912.77,2565.25
1914.61,2560.67
1916.44,2554.73
1918.27,2549.05
1920.1,2544.07
1921.93,2539.43
1923.76,2534.89
1925.59,2528.54
1927.41,2522.46
1929.24,2517.48
1931.07,2512.97
1932.89,2507.65
1934.72,2501.47
1936.54,2494.28
1938.36,2489.37
1940.19,2484.07
1942.01,2478.37
1943.83,2472.15
1945.65,2467.15
1947.47,2461.71
1949.29,2457.33
1951.1,2452.59
1952.92,2446.23
1954.74,2440.76
1956.55,2435.07
1958.37,2430.07
1960.18,2424.76
1961.99,2418.19
1963.81,2411.21
1965.62,2403.89
1967.43,2396.63
1969.24,2388.87
1971.05,2381.67
1972.86,2374.33
1974.67,2367.6
1976.47,2359.61
1978.28,2351.98
1980.09,2345.58
1981.89,2337.91
1983.7,2331.13
1985.5,2325.24
1987.3,2318.95
1989.11,2312.43
1990.91,2306.13
1992.71,2300.24
1994.51,2293.91
1996.31,2287.25
1998.11,2280.28
1999.9,2274.59
2001.7,2269.31
2003.5,2261.69
2005.29,2255.15
2007.09,2249.11
2008.88,2243.85
2010.67,2237.97
2012.47,2230.54
2014.26,2223.2
2016.05,2216.11
2017.84,2209.33
2019.63,2202.84
2021.42,2197.12
2023.21,2190.04
2024.99,2184.49
2026.78,2179.44
2028.57,2175.12
2030.35,2170.98
2032.14,2165.67
2033.92,2161.04
2035.7,2157.11
2037.48,2152.67
2039.27,2148.03
2041.05,2144.24
2042.83,2139.67
2044.61,2134.93
2046.38,2130.46
2048.16,2124.46
2049.94,2119.06
2051.71,2114.65
2053.49,2108.96
2055.27,2104.12
2057.04,2098.62
2058.81,2093.44
2060.59,2088.03
2062.36,2082.7
2064.13,2079.44
2065.9,2074.57
2067.67,2070.56
2069.44,2066.63
2071.21,2062.64
2072.97,2058.53
2074.74,2054.72
2076.51,2050.89
2078.27,2046.74
2080.04,2042.02
2081.8,2037.5
2083.56,2034.38
2085.32,2029.49
2087.09,2024.98
2088.85,2021.55
2090.61,2017.54
2092.37,2012.02
2094.12,2006.85
2095.88,2002.94
2097.64,1997.32
2099.4,1992.07
2101.15,1986.97
2102.91,1982.75
2104.66,1978.38
2106.41,1973.67
2108.17,1968.94
2109.92,1964.4
2111.67,1960.28
2113.42,1955.86
2115.17,1951.59
2116.92,1947.2
2118.67,1941.82
2120.42,1937.89
2122.16,1934.36
2123.91,1929.52
2125.65,1926.31
2127.4,1921.2
2129.14,1917.12
2130.89,1911.75
2132.63,1907.41
2134.37,1902.67
2136.11,1898.02
2137.85,1892.74
2139.59,1887.85
2141.33,1882.87
2143.07,1877.42
2144.81,1872.59
2146.54,1866.59
2148.28,1863.41
2150.01,1858.58
2151.75,1853.91
2153.48,1849.6
2155.22,1844.57
2156.95,1841.04
2158.68,1837.96
2160.41,1833.7
2162.14,1829.12
2163.87,1825.39
2165.6,1820.74
2167.33,1816.85
2169.05,1812.51
2170.78,1807.65
2172.51,1802.67
2174.23,1796.91
2175.96,1791.94
2177.68,1786.43
2179.4,1780.04
2181.12,1774.06
2182.85,1768.33
2184.57,1761.85
2186.29,1756.33
2188.01,1751.33
2189.72,1746.93
2191.44,1741.68
2193.16,1736.01
2194.87,1730.44
2196.59,1724.71
2198.31,1719.9
2200.02,1714.61
2201.73,1708.65
2203.45,1701.87
2205.16,1696.16
2206.87,1689.6
2208.58,1683.52
2210.29,1676.21
2212,1668.43
2213.71,1660.46
2215.41,1653.1
2217.12,1646.24
2218.83,1637.57
2220.53,1629.89
2222.24,1621.32
2223.94,1612.72
2225.64,1604.85
2227.35,1596.5
2229.05,1587.01
2230.75,1578.51
2232.45,1570.01
2234.15,1561.91
2235.85,1555.27
2237.55,1546.6
2239.24,1539.51
2240.94,1532.81
2242.64,1524.95
2244.33,1519.16
2246.03,1512.26
2247.72,1506.28
2249.41,1500.54
2251.11,1495.17
2252.8,1489.39
2254.49,1484.56
2256.18,1480
2257.87,1474.97
2259.56,1470.41
2261.25,1465.99
2262.93,1462.14
2264.62,1458.74
2266.31,1454.61
2267.99,1451.15
2269.68,1447.86
2271.36,1444.91
2273.04,1442.7
2274.73,1440.73
2276.41,1437.59
2278.09,1435.8
2279.77,1433.98
2281.45,1432.94
2283.13,1432.77
2284.8,1432.27
2286.48,1431.38
2288.16,1430.31
2289.83,1428.96
2291.51,1429.53
2293.18,1429.36
2294.86,1428.86
2296.53,1428.51
2298.2,1429.11
2299.88,1428.96
2301.55,1428.43
2303.22,1427.51
2304.89,1425.94
2306.55,1425.6
2308.22,1423.93
2309.89,1422.15
2311.56,1420.46
2313.22,1416.81
2314.89,1414.51
2316.55,1410.72
2318.22,1407.33
2319.88,1403.59
2321.54,1399.93
2323.2,1395.79
2324.86,1391.15
2326.52,1386.67
2328.18,1381.34
2329.84,1376.27
2331.5,1370.5
2333.16,1364.75
2334.81,1358.63
2336.47,1353.11
2338.12,1347.32
2339.78,1342.2
2341.43,1337.47
2343.09,1332.07
2344.74,1327.29
2346.39,1322.26
2348.04,1318.51
2349.69,1314.83
2351.34,1310.05
2352.99,1306.1
2354.64,1302.98
2356.28,1301.13
2357.93,1299.02
2359.58,1296.25
2361.22,1292.6
2362.87,1290.08
2364.51,1289.2
2366.15,1286.8
2367.8,1284.78
2369.44,1284.29
2371.08,1283.61
2372.72,1283.54
2374.36,1283.45
2376,1284.32
2377.64,1284.83
2379.27,1285.73
2380.91,1287.15
2382.55,1288.38
2384.18,1290.13
2385.82,1292.43
2387.45,1295.21
2389.08,1297.56
2390.71,1301.2
2392.35,1304.25
2393.98,1307.66
2395.61,1311.32
2397.24,1314.95
2398.87,1319.9
2400.49,1322.98
2402.12,1326.81
2403.75,1330.86
2405.37,1335.06
2407,1338.06
2408.62,1341.41
2410.25,1344.38
2411.87,1347.32
2413.49,1350.74
2415.12,1352.96
2416.74,1354.84
2418.36,1357.21
2419.98,1359.15
2421.6,1359.87
2423.21,1360.62
2424.83,1361.83
2426.45,1363.45
2428.07,1365.24
2429.68,1366.2
2431.3,1366.12
2432.91,1366.75
2434.52,1367.18
2436.14,1367.52
2437.75,1367.82
2439.36,1367.92
2440.97,1366.64
2442.58,1365.35
2444.19,1365.52
2445.8,1364.37
2447.4,1363.5
2449.01,1362.7
2450.62,1362.15
2452.22,1361.33
2453.83,1360.62
2455.43,1358.82
2457.04,1355.98
2458.64,1353.62
2460.24,1352.07
2461.84,1351.12
2463.44,1350.74
2465.04,1348.15
2466.64,1346.64
2468.24,1346.01
2469.84,1344.58
2471.44,1343.54
2473.03,1343.12
2474.63,1341.41
2476.22,1340.1
2477.82,1338.72
2479.41,1337.24
2481,1335.99
2482.6,1335
2484.19,1333.85
2485.78,1332.42
2487.37,1332.15
2488.96,1331.23
2490.55,1329.21
2492.14,1326.46
2493.72,1324.59
2495.31,1322.49
2496.9,1319.76
2498.48,1318.93
2500.07,1317.46
2501.65,1315.52
2503.23,1313.86
2504.82,1309.65
2506.4,1309.11
2507.98,1307.66
2509.56,1305.52
2511.14,1304.82
2512.72,1302.67
2514.3,1300.87
2515.87,1300.68
2517.45,1299.15
2519.03,1297.22
2520.6,1297.89
2522.18,1297.76
2523.75,1297.45
2525.32,1295.89
2526.9,1293.5
2528.47,1291.97
2530.04,1290.84
2531.61,1290.03
2533.18,1288.08
2534.75,1286.41
2536.32,1283.94
2537.89,1282.71
2539.45,1280.81
2541.02,1278.92
2542.59,1277.28
2544.15,1274.44
2545.72,1273.11
2547.28,1271.18
2548.84,1269.6
2550.41,1268.1
2551.97,1265.85
2553.53,1263.09
2555.09,1262.35
2556.65,1260.52
2558.21,1259.69
2559.76,1259.2
2561.32,1258.22
2562.88,1256.95
2564.43,1255.73
2565.99,1254.78
2567.54,1254.07
2569.1,1254.34
2570.65,1252.2
2572.2,1250.83
2573.76,1249.47
2575.31,1247.93
2576.86,1246.46
2578.41,1244.03
2579.96,1242.15
2581.51,1240.39
2583.05,1239.07
2584.6,1235.93
2586.15,1233.63
2587.69,1231.5
2589.24,1229.61
2590.78,1228.37
2592.33,1225.11
2593.87,1223.32
2595.41,1222.52
2596.95,1221.24
2598.49,1219.54
2600.03,1216.57
2601.57,1214.81
2603.11,1213.63
2604.65,1211.63
2606.19,1210.11
2607.72,1208.76
2609.26,1206.49
2610.8,1205.04
2612.33,1203.62
2613.86,1201.11
2615.4,1199.17
2616.93,1197.67
2618.46,1195.54
2619.99,1194.24
2621.52,1191.49
2623.05,1188.59
2624.58,1187.15
2626.11,1184.26
2627.64,1182.76
2629.17,1180.24
2630.69,1177.5
2632.22,1175.91
2633.74,1174.24
2635.27,1172.67
2636.79,1170.45
2638.32,1167.04
2639.84,1166.04
2641.36,1164.54
2642.88,1161.95
2644.4,1159.8
2645.92,1158.06
2647.44,1156.33
2648.96,1154.28
2650.47,1153.11
2651.99,1150.92
2653.51,1149.27
2655.02,1147.93
2656.54,1146.08
2658.05,1143.27
2659.57,1140.85
2661.08,1138.53
2662.59,1137.8
2664.1,1135.44
2665.61,1132.31
2667.12,1129.82
2668.63,1128.14
2670.14,1126.79
2671.65,1124.8
2673.16,1122.89
2674.66,1120.51
2676.17,1118.93
2677.67,1118.05
2679.18,1116.4
2680.68,1114.49
2682.18,1114.01
2683.69,1113.17
2685.19,1111.28
2686.69,1109.17
2688.19,1108.06
2689.69,1106.54
2691.19,1105.33
2692.69,1103.59
2694.19,1101.99
2695.68,1100.09
2697.18,1098.05
2698.68,1095.99
2700.17,1095.71
2701.66,1094.71
2703.16,1093.58
2704.65,1092.11
2706.14,1091.05
2707.64,1089.3
2709.13,1088.23
2710.62,1086.68
2712.11,1083.98
2713.59,1082.5
2715.08,1081.03
2716.57,1079.51
2718.06,1077.78
2719.54,1075.93
2721.03,1073.94
2722.51,1071.98
2724,1070.94
2725.48,1069.4
2726.96,1068.42
2728.45,1067.5
2729.93,1064.91
2731.41,1063.46
2732.89,1062.04
2734.37,1060.04
2735.85,1058.09
2737.33,1055.98
2738.8,1053.82
2740.28,1052.26
2741.76,1051.1
2743.23,1048.84
2744.71,1047.05
2746.18,1045.63
2747.65,1044.25
2749.13,1041.53
2750.6,1038.82
2752.07,1037.67
2753.54,1036.08
2755.01,1034.46
2756.48,1032.23
2757.95,1029.54
2759.42,1028.02
2760.88,1026.56
2762.35,1024.09
2763.82,1021.9
2765.28,1019.99
2766.75,1018.54
2768.21,1016.75
2769.67,1013.89
2771.14,1012.7
2772.6,1011.58
2774.06,1010.05
2775.52,1008.33
2776.98,1006.1
2778.44,1004.91
2779.9,1003.96
2781.35,1003.22
2782.81,1003.14
2784.27,1001.11
2785.72,998.93
2787.18,996.78
2788.63,995.17
2790.09,994.14
2791.54,992.26
2792.99,990.11
2794.45,988.36
2795.9,987.14
2797.35,986.18
2798.8,984.08
2800.25,982.32
2801.69,979.93
2803.14,977.93
2804.59,976.39
2806.04,976.11
2807.48,974.6
2808.93,973.79
2810.37,972.55
2811.81,970.03
2813.26,968.29
2814.7,966.18
2816.14,964.96
2817.58,965.25
2819.02,965.13
2820.46,963.67
2821.9,962.3
2823.34,961.86
2824.78,961.4
2826.22,960.26
2827.65,958.46
2829.09,957.84
2830.52,956.55
2831.96,956.24
2833.39,955.8
2834.82,954.9
2836.26,955.35
2837.69,954.34
2839.12,953.29
2840.55,952.73
2841.98,951.36
2843.41,950.54
2844.84,950.21
2846.27,950.74
2847.69,950.89
2849.12,950.76
2850.55,950.3
2851.97,951.04
2853.39,952.67
2854.82,952.44
2856.24,952.51
2857.66,953.24
2859.09,953.24
2860.51,954.23
2861.93,954.42
2863.35,954.19
2864.77,953.97
2866.19,954.12
2867.6,954.55
2869.02,955.25
2870.44,955.6
2871.85,956.01
2873.27,954.81
2874.68,955.74
2876.1,955.26
2877.51,954.98
2878.92,955.8
2880.33,957.33
2881.74,957.55
2883.16,956.82
2884.57,956.28
2885.97,956.63
2887.38,957
2888.79,957.16
2890.2,957.36
2891.6,956.96
2893.01,956.88
2894.42,957.26
2895.82,957.88
2897.22,957.8
2898.63,956.95
2900.03,957.07
2901.43,957.89
2902.83,958.62
2904.23,958.32
2905.63,957.35
2907.03,956.95
2908.43,956.97
2909.83,956.5
2911.23,954.76
2912.62,954.12
2914.02,954.07
2915.42,953.01
2916.81,952.4
2918.2,950.98
2919.6,950.18
2920.99,949.34
2922.38,947.95
2923.77,946.36
2925.16,944.2
2926.55,941.37
2927.94,939.72
2929.33,938.45
2930.72,938.4
2932.11,937.07
2933.5,935.41
2934.88,933.67
2936.27,930.49
2937.65,927.01
2939.04,924.13
2940.42,922.05
2941.8,920.02
2943.18,918.29
2944.57,915.58
2945.95,912.39
2947.33,909.1
2948.71,906.43
2950.09,903.2
2951.46,899.22
2952.84,894.55
2954.22,891.08
2955.6,887.85
2956.97,884.45
2958.35,880.76
2959.72,876.8
2961.09,873.77
2962.47,870.67
2963.84,866.68
2965.21,862.37
2966.58,857.8
2967.95,853.43
2969.32,849.91
2970.69,845.3
2972.06,842.04
2973.43,837.52
2974.8,833.61
2976.16,830.03
2977.53,826.08
2978.89,821.54
2980.26,817.91
2981.62,814.12
2982.98,811.54
2984.35,807.56
2985.71,803.19
2987.07,799.51
2988.43,795.06
2989.79,791.48
2991.15,787.49
2992.51,783.77
2993.87,779.91
2995.22,777.28
2996.58,774
2997.94,770.54
2999.29,766.45
3000.65,763.01
3002,760.53
3003.36,757.07
3004.71,753.29
3006.06,749.39
3007.41,745.38
3008.76,742.31
3010.11,740.14
3011.46,737.21
3012.81,733.83
3014.16,730.37
3015.51,726.64
3016.85,723.07
3018.2,720.38
3019.55,717.98
3020.89,715.98
3022.24,713.48
3023.58,710.84
3024.92,708.29
3026.27,705.33
3027.61,702.13
3028.95,701.17
3030.29,698.93
3031.63,695.7
3032.97,693.33
3034.31,691.22
3035.65,689.43
3036.98,687.66
3038.32,684.46
3039.66,682.33
3040.99,680.1
3042.33,677.59
3043.66,675.63
3044.99,672.85
3046.33,670.97
3047.66,669.35
3048.99,667.67
3050.32,665.09
3051.65,661.93
3052.98,659.04
3054.31,656.99
3055.64,654.86
3056.96,652.17
3058.29,649.78
3059.62,648.12
3060.94,647.33
3062.27,646.28
3063.59,645.01
3064.92,642.31
3066.24,639.77
3067.56,637.15
3068.88,635.02
3070.21,633.8
3071.53,632
3072.85,629.94
3074.17,627.48
3075.48,625.07
3076.8,623.25
3078.12,620.61
3079.44,618.24
3080.75,616.2
3082.07,613.58
3083.38,610.31
3084.7,606.77
3086.01,604.89
3087.32,603.34
3088.64,600.98
3089.95,598.41
3091.26,596.58
3092.57,594.9
3093.88,592.93
3095.19,590.28
3096.5,588.32
3097.8,585.54
3099.11,583.26
3100.42,581.74
3101.72,580.41
3103.03,578.33
3104.33,576.2
3105.64,574.32
3106.94,572.59
3108.24,570.65
3109.54,568.02
3110.84,566.07
3112.15,563.89
3113.45,562.17
3114.75,560.25
3116.04,557.93
3117.34,556.07
3118.64,553.76
3119.94,551.76
3121.23,550.83
3122.53,548.92
3123.82,546.15
3125.12,543.98
3126.41,541.48
3127.7,539.78
3129,538.63
3130.29,536.54
3131.58,535.36
3132.87,533.97
3134.16,532.29
3135.45,530.66
3136.74,528.5
3138.03,527.86
3139.31,526.61
3140.6,524.66
3141.89,523.26
3143.17,521.1
3144.46,518.81
3145.74,517.29
3147.02,516.12
3148.31,515.13
3149.59,513.73
3150.87,513.03
3152.15,512.33
3153.43,509.9
3154.71,507.8
3155.99,505.96
3157.27,504.64
3158.55,505.24
3159.82,504.72
3161.1,503.23
3162.38,502.37
3163.65,501.21
3164.93,500.63
3166.2,499.45
3167.47,497.73
3168.75,495.7
3170.02,495.11
3171.29,494.19
3172.56,493.69
3173.83,492.06
3175.1,490.96
3176.37,489.59
3177.64,488.64
3178.91,487.17
3180.17,486.15
3181.44,484.29
3182.7,483.85
3183.97,483.41
3185.23,482.5
3186.5,480.72
3187.76,479.54
3189.02,479.13
3190.29,478.13
3191.55,495.67
3192.81,478.33
3194.07,438.33
3195.33,503
3196.59,471.33
3197.85,477.67
3199.1,468
3200.36,469.67
3201.62,440
3202.87,474
3204.13,444
3205.38,470
3206.63,457.67
3207.89,476.33
3209.14,480.33
3210.39,482
3211.64,424.67
3212.89,444
3214.14,456.33
3215.39,454.67
