Wavenumber [cm-1],Raman Intensity
160.07,11861.33
162.55,12173.67
165.03,12099.67
167.5,12210.33
169.97,12333.33
172.45,12128.33
174.92,12480.67
177.39,12515.67
179.86,12539.67
182.33,12721.33
184.8,12815
187.27,12804.33
189.74,13017.67
192.2,13086
194.67,13137.33
197.14,13237.67
199.6,13155
202.06,13235.33
204.53,13332.67
206.99,13293
209.45,12789.41
211.91,12799.31
214.37,12797.85
216.83,12796.41
219.29,12791.26
221.74,12784.32
224.2,12780.91
226.65,12768.54
229.11,12755.71
231.56,12741.72
234.02,12719.75
236.47,12693.39
238.92,12666.98
241.37,12633.2
243.82,12598.24
246.27,12556.73
248.72,12512.2
251.16,12467.99
253.61,12421.51
256.06,12372.98
258.5,12323.31
260.95,12270.92
263.39,12221.91
265.83,12167.66
268.27,12112.85
270.71,12066.11
273.15,12011.15
275.59,11959.04
278.03,11906.66
280.47,11856.72
282.91,11804.84
285.34,11758.21
287.78,11712.71
290.21,11669.93
292.64,11630.24
295.08,11588.92
297.51,11549.73
299.94,11513.28
302.37,11478.96
304.8,11440.82
307.23,11403.76
309.66,11371.36
312.08,11332.76
314.51,11299.93
316.94,11272.16
319.36,11240.82
321.78,11210.5
324.21,11180.82
326.63,11150.13
329.05,11120.54
331.47,11089.93
333.89,11060.76
336.31,11035.28
338.73,11013.46
341.15,10989.88
343.56,10965.78
345.98,10947.67
348.39,10931.35
350.81,10915.83
353.22,10900.09
355.63,10882.04
358.04,10863.5
360.46,10849.46
362.87,10830.24
365.27,10813.66
367.68,10797.91
370.09,10777.66
372.5,10761.18
374.9,10742.74
377.31,10728.83
379.71,10714.46
382.12,10699.41
384.52,10682.72
386.92,10678.94
389.32,10664.9
391.72,10649.3
394.12,10633.42
396.52,10619.98
398.92,10603.63
401.32,10587.52
403.71,10572.2
406.11,10560.5
408.5,10544.24
410.9,10529.7
413.29,10516.69
415.68,10493.74
418.07,10475.92
420.46,10455.44
422.85,10432.28
425.24,10409.75
427.63,10390.98
430.02,10367.36
432.4,10347.93
434.79,10325.54
437.17,10295.99
439.56,10276.72
441.94,10253.95
444.32,10231.8
446.71,10204.51
449.09,10179.07
451.47,10150.2
453.85,10125.69
456.22,10102.82
458.6,10078.84
460.98,10054.44
463.35,10035.69
465.73,10010.57
468.1,9989.04
470.48,9967.28
472.85,9942.1
475.22,9917.76
477.59,9893.5
479.96,9867.29
482.33,9841.14
484.7,9806.73
487.07,9787.38
489.44,9757.8
491.8,9729.72
494.17,9700.07
496.53,9671.96
498.9,9648.38
501.26,9618.67
503.62,9591.28
505.98,9562.32
508.34,9538.21
510.7,9505.98
513.06,9482.04
515.42,9456.56
517.78,9429.82
520.14,9409.99
522.49,9384.98
524.85,9356.4
527.2,9338.23
529.55,9318.41
531.91,9296.89
534.26,9277.66
536.61,9252.44
538.96,9228.39
541.31,9204.93
543.66,9186.73
546,9164.96
548.35,9153.7
550.7,9139.37
553.04,9119.2
555.39,9101.15
557.73,9085.4
560.07,9062.68
562.41,9047.2
564.76,9030.33
567.1,9020.55
569.44,9012.76
571.77,9003.81
574.11,8993.48
576.45,8985.63
578.79,8975.48
581.12,8960.94
583.46,8937.5
585.79,8918.78
588.12,8899.43
590.46,8880.69
592.79,8862.95
595.12,8839.15
597.45,8819.16
599.78,8795.07
602.1,8773.6
604.43,8748.84
606.76,8727.64
609.08,8702.59
611.41,8678.14
613.73,8658.58
616.06,8633.85
618.38,8615.49
620.7,8598.26
623.02,8574.07
625.34,8547.46
627.66,8527.31
629.98,8508.85
632.3,8488.46
634.61,8467.13
636.93,8443.46
639.25,8420.76
641.56,8400.25
643.87,8371.89
646.19,8341.68
648.5,8323.59
650.81,8301.88
653.12,8278.11
655.43,8261.12
657.74,8243.61
660.05,8221.68
662.35,8197.33
664.66,8173.38
666.97,8151.07
669.27,8129.5
671.57,8113.67
673.88,8095.15
676.18,8078.1
678.48,8065.6
680.78,8057.87
683.08,8049.38
685.38,8039.28
687.68,8030.34
689.98,8019.99
692.27,8015.99
694.57,8009.48
696.86,8003.81
699.16,8000.56
701.45,7998.74
703.74,7998.07
706.04,7999.05
708.33,7999.01
710.62,7998.38
712.91,7996.91
715.2,7992.55
717.48,7995.23
719.77,7996.89
722.06,7990.24
724.34,7987.37
726.63,7990.84
728.91,7991.11
731.19,7988.89
733.48,7988.92
735.76,7987.94
738.04,7987.79
740.32,7991.38
742.6,7990.99
744.87,7990.73
747.15,7995.83
749.43,7995.98
751.7,7991.46
753.98,7992.24
756.25,7998.82
758.53,7994.15
760.8,7990.07
763.07,7982.93
765.34,7975.25
767.61,7973.01
769.88,7968.44
772.15,7965.55
774.42,7964.33
776.68,7965.7
778.95,7973.46
781.21,7978
783.48,7992.35
785.74,8007.88
788,8026.65
790.27,8047.99
792.53,8069.83
794.79,8093.44
797.05,8120.28
799.31,8143.88
801.56,8161.88
803.82,8185.11
806.08,8203.8
808.33,8225.61
810.59,8241.76
812.84,8259.61
815.1,8283.39
817.35,8304.33
819.6,8320.27
821.85,8340.13
824.1,8365.89
826.35,8385.94
828.6,8405.97
830.84,8425.1
833.09,8445.17
835.34,8461.94
837.58,8476.2
839.83,8484.3
842.07,8494.92
844.31,8510.2
846.55,8520.17
848.8,8519.37
851.04,8531.22
853.27,8541.8
855.51,8552.31
857.75,8557.3
859.99,8574.09
862.22,8586.28
864.46,8594.04
866.69,8597.45
868.93,8599.41
871.16,8601.85
873.39,8597.9
875.63,8588.58
877.86,8573.97
880.09,8555.91
882.31,8533.18
884.54,8511.54
886.77,8485.95
889,8457.38
891.22,8432.5
893.45,8410.63
895.67,8386.89
897.9,8368.91
900.12,8349.75
902.34,8332.67
904.56,8315.03
906.78,8296.73
909,8277.72
911.22,8260.78
913.44,8243.27
915.65,8223.21
917.87,8207.07
920.08,8195.93
922.3,8186.33
924.51,8173.86
926.73,8163.28
928.94,8155.29
931.15,8147.33
933.36,8136.47
935.57,8126.06
937.78,8114.59
939.99,8105.11
942.19,8096.33
944.4,8088.54
946.61,8090.34
948.81,8110.02
951.02,8131.72
953.22,8176.11
955.42,8228.86
957.62,8289.46
959.82,8339.41
962.02,8367.11
964.22,8386.61
966.42,8390.04
968.62,8386.77
970.82,8382.09
973.01,8375.93
975.21,8371.53
977.4,8372.92
979.6,8376.5
981.79,8389.58
983.98,8402.3
986.17,8418.02
988.36,8428.89
990.55,8438.8
992.74,8441.65
994.93,8439.67
997.12,8436.78
999.3,8428.82
1001.49,8418.54
1003.67,8410.46
1005.86,8404.41
1008.04,8396.55
1010.22,8386.2
1012.41,8380.37
1014.59,8379.64
1016.77,8382.92
1018.95,8388.11
1021.12,8398.16
1023.3,8417.32
1025.48,8431.89
1027.66,8453.3
1029.83,8474.63
1032.01,8497.8
1034.18,8516.21
1036.35,8531.33
1038.52,8527.52
1040.7,8508.16
1042.87,8472.79
1045.04,8425.59
1047.2,8373.51
1049.37,8324.91
1051.54,8288.98
1053.71,8268.67
1055.87,8256.68
1058.04,8250.53
1060.2,8248.05
1062.36,8246.1
1064.53,8238.65
1066.69,8225.27
1068.85,8210.33
1071.01,8177.85
1073.17,8144.89
1075.33,8106.56
1077.49,8071.07
1079.64,8031.7
1081.8,7996.53
1083.95,7969.61
1086.11,7936.46
1088.26,7908.75
1090.42,7879.96
1092.57,7852.1
1094.72,7822.55
1096.87,7790.01
1099.02,7757.59
1101.17,7725.03
1103.32,7681.9
1105.47,7641.67
1107.61,7598.91
1109.76,7556.24
1111.9,7510.76
1114.05,7464.52
1116.19,7415.29
1118.33,7365.62
1120.47,7311.76
1122.62,7255.91
1124.76,7197.26
1126.9,7140.47
1129.03,7087.69
1131.17,7038.12
1133.31,6997.3
1135.45,6956.1
1137.58,6926.67
1139.72,6900.99
1141.85,6876.09
1143.98,6856.74
1146.12,6841.44
1148.25,6826.54
1150.38,6814.34
1152.51,6801.51
1154.64,6790.3
1156.77,6780.94
1158.89,6776.5
1161.02,6774.28
1163.15,6773.27
1165.27,6770.11
1167.4,6768.91
1169.52,6765.37
1171.64,6762.7
1173.76,6767.07
1175.88,6770.8
1178.01,6773.49
1180.13,6779.13
1182.24,6784.11
1184.36,6788.6
1186.48,6792.75
1188.6,6796.7
1190.71,6807.17
1192.83,6814.89
1194.94,6825.67
1197.05,6835.87
1199.17,6846.47
1201.28,6862.97
1203.39,6886.65
1205.5,6917.51
1207.61,6956.12
1209.72,7004.21
1211.82,7056.4
1213.93,7118.5
1216.04,7181.24
1218.14,7243.29
1220.25,7306.91
1222.35,7370.56
1224.45,7426.53
1226.56,7477.81
1228.66,7526.98
1230.76,7576.01
1232.86,7616.15
1234.96,7658.04
1237.06,7691.2
1239.15,7723.52
1241.25,7756.95
1243.35,7792.26
1245.44,7830.59
1247.54,7871.87
1249.63,7917.72
1251.72,7973
1253.81,8036.05
1255.91,8108.48
1258,8181.74
1260.09,8253.87
1262.17,8322.31
1264.26,8386.44
1266.35,8437.89
1268.44,8479.14
1270.52,8518.75
1272.61,8552.24
1274.69,8574.03
1276.77,8595.48
1278.86,8605.89
1280.94,8609.41
1283.02,8606.3
1285.1,8596.54
1287.18,8577.6
1289.26,8550.6
1291.34,8515.26
1293.41,8472.02
1295.49,8416.47
1297.56,8358.37
1299.64,8293.05
1301.71,8220.14
1303.79,8148.56
1305.86,8068.08
1307.93,7987.32
1310,7913.95
1312.07,7839.95
1314.14,7765.95
1316.21,7692.42
1318.28,7625.7
1320.34,7554.75
1322.41,7494.7
1324.47,7435.5
1326.54,7374.49
1328.6,7311.32
1330.66,7243.77
1332.73,7172.12
1334.79,7096.52
1336.85,7012.14
1338.91,6917.87
1340.97,6822.76
1343.03,6722.7
1345.08,6621.71
1347.14,6524.14
1349.19,6435.1
1351.25,6358.35
1353.3,6292.54
1355.36,6234.86
1357.41,6179.24
1359.46,6130.02
1361.51,6081.76
1363.56,6040.52
1365.61,6003.91
1367.66,5976.63
1369.71,5955.33
1371.76,5938
1373.8,5926.84
1375.85,5919.64
1377.89,5919.18
1379.94,5931.22
1381.98,5950.5
1384.02,5980.41
1386.07,6040.37
1388.11,6103.4
1390.15,6186.69
1392.19,6291.09
1394.22,6404.76
1396.26,6533.28
1398.3,6667.22
1400.34,6796.63
1402.37,6923.59
1404.41,7045.82
1406.44,7157.59
1408.47,7263.97
1410.51,7364.46
1412.54,7452.45
1414.57,7536.42
1416.6,7612.8
1418.63,7680.67
1420.66,7739.04
1422.68,7790.32
1424.71,7826.47
1426.74,7855.93
1428.76,7879.2
1430.79,7898.76
1432.81,7912.8
1434.83,7914.75
1436.85,7913.88
1438.88,7907.82
1440.9,7902.47
1442.92,7893.38
1444.94,7879.89
1446.95,7865.42
1448.97,7849.49
1450.99,7826.6
1453,7799.03
1455.02,7775.47
1457.03,7744.72
1459.05,7710.22
1461.06,7670.29
1463.07,7623.36
1465.08,7565.63
1467.09,7496.7
1469.1,7400
1471.11,7295.87
1473.12,7176.71
1475.13,7037.29
1477.13,6887.94
1479.14,6726.13
1481.15,6559.6
1483.15,6401.15
1485.15,6245.04
1487.16,6097.07
1489.16,5953.17
1491.16,5813.39
1493.16,5685.63
1495.16,5566.8
1497.16,5453.97
1499.16,5348.14
1501.15,5252.52
1503.15,5170.19
1505.15,5093.83
1507.14,5030.18
1509.14,4973.8
1511.13,4924.46
1513.12,4881.02
1515.11,4841.11
1517.1,4810.24
1519.09,4780.7
1521.08,4755.04
1523.07,4728.89
1525.06,4706.12
1527.05,4689.61
1529.03,4669.41
1531.02,4656.41
1533.01,4645.45
1534.99,4635.37
1536.97,4628.21
1538.96,4625.67
1540.94,4624.56
1542.92,4625.95
1544.9,4623.1
1546.88,4624.39
1548.86,4624.67
1550.84,4626.98
1552.81,4631.84
1554.79,4642.41
1556.76,4655.68
1558.74,4669.68
1560.71,4691.39
1562.69,4708.74
1564.66,4723.74
1566.63,4734.24
1568.6,4737.24
1570.57,4744.85
1572.54,4752.02
1574.51,4752.2
1576.48,4753.63
1578.45,4756.92
1580.41,4758.54
1582.38,4756.72
1584.34,4757.69
1586.31,4763.27
1588.27,4769.33
1590.23,4777.14
1592.19,4791.85
1594.16,4806.94
1596.12,4831.02
1598.07,4854.2
1600.03,4889.78
1601.99,4935.14
1603.95,4996.27
1605.9,5076.96
1607.86,5172.46
1609.82,5288.65
1611.77,5415.54
1613.72,5549.97
1615.68,5690.47
1617.63,5818.07
1619.58,5928.67
1621.53,6021.3
1623.48,6088.92
1625.43,6143.4
1627.37,6179.5
1629.32,6200
1631.27,6211.87
1633.21,6213.71
1635.16,6200.11
1637.1,6182.06
1639.05,6158.89
1640.99,6126.23
1642.93,6098.03
1644.87,6069.11
1646.81,6045.96
1648.75,6026.59
1650.69,6002.85
1652.63,5987.04
1654.56,5970.97
1656.5,5954.84
1658.44,5936.96
1660.37,5918.81
1662.31,5906.31
1664.24,5890.63
1666.17,5870.68
1668.1,5847.82
1670.03,5822.5
1671.96,5791.54
1673.89,5759.84
1675.82,5717.11
1677.75,5674.61
1679.68,5622.98
1681.6,5555.84
1683.53,5479.24
1685.46,5385.27
1687.38,5273.28
1689.3,5146.74
1691.23,5006.49
1693.15,4859.04
1695.07,4705.74
1696.99,4565.83
1698.91,4443.05
1700.83,4339.92
1702.75,4258.18
1704.66,4194.41
1706.58,4146.28
1708.5,4112.5
1710.41,4083.1
1712.32,4064.41
1714.24,4050.2
1716.15,4034.14
1718.06,4017.43
1719.97,4003.26
1721.88,3989.69
1723.79,3973.2
1725.7,3955.93
1727.61,3941.98
1729.52,3932.45
1731.43,3919.35
1733.33,3903.68
1735.24,3890.63
1737.14,3877.21
1739.04,3865.44
1740.95,3849.7
1742.85,3832.89
1744.75,3822.64
1746.65,3809.24
1748.55,3796.86
1750.45,3788.11
1752.35,3773.36
1754.25,3761.15
1756.14,3752.73
1758.04,3738.89
1759.93,3726.18
1761.83,3712.74
1763.72,3696.06
1765.61,3678.5
1767.51,3662.62
1769.4,3640.33
1771.29,3622.08
1773.18,3603.71
1775.07,3576.54
1776.96,3547.46
1778.84,3518.37
1780.73,3490.67
1782.62,3461.76
1784.5,3432.59
1786.39,3406.49
1788.27,3383.76
1790.15,3356.17
1792.04,3337.11
1793.92,3322.17
1795.8,3304.1
1797.68,3290.67
1799.56,3274.35
1801.44,3264.25
1803.32,3252.11
1805.19,3239.7
1807.07,3226.52
1808.94,3212.5
1810.82,3201.45
1812.69,3192.14
1814.57,3179.87
1816.44,3171.42
1818.31,3159.87
1820.18,3154.73
1822.05,3143.4
1823.92,3138.5
1825.79,3130.97
1827.66,3119.07
1829.53,3109.71
1831.39,3102.07
1833.26,3094.18
1835.12,3084.18
1836.99,3076.13
1838.85,3068.37
1840.71,3061.51
1842.58,3058.15
1844.44,3050.72
1846.3,3045.8
1848.16,3034.23
1850.02,3024.67
1851.87,3017.17
1853.73,3012.13
1855.59,3003.06
1857.44,2993.21
1859.3,2983.87
1861.15,2979.11
1863.01,2967.01
1864.86,2957.05
1866.71,2952.24
1868.56,2941.22
1870.41,2930.42
1872.26,2923.55
1874.11,2916.21
1875.96,2912.33
1877.81,2901.52
1879.66,2895.37
1881.5,2888.99
1883.35,2881.6
1885.19,2875.09
1887.04,2870.92
1888.88,2861.75
1890.72,2852.33
1892.56,2842.59
1894.41,2836.86
1896.25,2825.93
1898.09,2817.68
1899.92,2808.07
1901.76,2800.35
1903.6,2794.2
1905.44,2790.02
1907.27,2783.41
1909.11,2776.47
1910.94,2772.26
1912.77,2769.11
1914.61,2760.36
1916.44,2754.29
1918.27,2744.2
1920.1,2736.46
1921.93,2727.97
1923.76,2719.84
1925.59,2711.49
1927.41,2705.4
1929.24,2696.63
1931.07,2688.7
1932.89,2682.65
1934.72,2675.99
1936.54,2666.72
1938.36,2660.14
1940.19,2653.26
1942.01,2642.43
1943.83,2636.64
1945.65,2629.71
1947.47,2623.34
1949.29,2617.54
1951.1,2608.41
1952.92,2602.8
1954.74,2596.98
1956.55,2589.56
1958.37,2586.98
1960.18,2580.26
1961.99,2570.02
1963.81,2564.62
1965.62,2561.52
1967.43,2552.67
1969.24,2544.15
1971.05,2536.03
1972.86,2528.42
1974.67,2521.7
1976.47,2516.16
1978.28,2507
1980.09,2495.23
1981.89,2486.33
1983.7,2476.2
1985.5,2469.98
1987.3,2459.7
1989.11,2452.76
1990.91,2444
1992.71,2437.41
1994.51,2430.68
1996.31,2426.22
1998.11,2420.66
1999.9,2414.38
2001.7,2407.04
2003.5,2402.67
2005.29,2397.66
2007.09,2389.54
2008.88,2381.4
2010.67,2375.59
2012.47,2372.32
2014.26,2368.06
2016.05,2365.48
2017.84,2356.85
2019.63,2347.97
2021.42,2341.38
2023.21,2332.22
2024.99,2328.07
2026.78,2323.07
2028.57,2317.22
2030.35,2310.03
2032.14,2300.54
2033.92,2294.22
2035.7,2291.84
2037.48,2283.13
2039.27,2278.59
2041.05,2276.9
2042.83,2270.8
2044.61,2264.84
2046.38,2258.84
2048.16,2252.99
2049.94,2248.3
2051.71,2242.86
2053.49,2242.79
2055.27,2238.52
2057.04,2234.09
2058.81,2226.56
2060.59,2222.31
2062.36,2220.93
2064.13,2215.82
2065.9,2212.19
2067.67,2206.88
2069.44,2199.67
2071.21,2194.72
2072.97,2191.48
2074.74,2188.23
2076.51,2180.63
2078.27,2175.48
2080.04,2172.02
2081.8,2169.76
2083.56,2162.48
2085.32,2157.28
2087.09,2152.16
2088.85,2143.17
2090.61,2137.68
2092.37,2133.07
2094.12,2127.03
2095.88,2126.07
2097.64,2118.67
2099.4,2115
2101.15,2108.78
2102.91,2104.85
2104.66,2101.45
2106.41,2095.39
2108.17,2088.52
2109.92,2087.81
2111.67,2079.93
2113.42,2076.01
2115.17,2074.7
2116.92,2071.2
2118.67,2070.34
2120.42,2066.3
2122.16,2057.5
2123.91,2052.36
2125.65,2042.28
2127.4,2038.72
2129.14,2031.09
2130.89,2029.06
2132.63,2022.44
2134.37,2012.38
2136.11,2006.24
2137.85,1999.15
2139.59,1990.99
2141.33,1988.11
2143.07,1985.17
2144.81,1980.64
2146.54,1978.76
2148.28,1976.59
2150.01,1973.49
2151.75,1969.8
2153.48,1966.28
2155.22,1966.35
2156.95,1962.88
2158.68,1959.42
2160.41,1960.02
2162.14,1956.57
2163.87,1955.72
2165.6,1954.8
2167.33,1949.15
2169.05,1946.37
2170.78,1941.03
2172.51,1937.84
2174.23,1934.56
2175.96,1931.31
2177.68,1932.43
2179.4,1928.18
2181.12,1922.15
2182.85,1921.11
2184.57,1916.43
2186.29,1912.24
2188.01,1906.67
2189.72,1901.07
2191.44,1896.25
2193.16,1893.89
2194.87,1892.86
2196.59,1893.87
2198.31,1889.1
2200.02,1886.78
2201.73,1879.04
2203.45,1876.26
2205.16,1872.79
2206.87,1869.7
2208.58,1866.14
2210.29,1864.46
2212,1857.11
2213.71,1853.67
2215.41,1849.37
2217.12,1839.42
2218.83,1834.68
2220.53,1829.33
2222.24,1823.93
2223.94,1817.74
2225.64,1808.75
2227.35,1803.46
2229.05,1799.82
2230.75,1791.82
2232.45,1789.8
2234.15,1786.34
2235.85,1781.02
2237.55,1776.89
2239.24,1773.15
2240.94,1768.23
2242.64,1764.57
2244.33,1759.11
2246.03,1750.63
2247.72,1742.85
2249.41,1742.23
2251.11,1735.76
2252.8,1729.37
2254.49,1724.2
2256.18,1716.8
2257.87,1712.5
2259.56,1706.9
2261.25,1699.85
2262.93,1694.52
2264.62,1689.5
2266.31,1683.45
2267.99,1680.69
2269.68,1677.11
2271.36,1673.99
2273.04,1670.65
2274.73,1668.03
2276.41,1664.28
2278.09,1659.17
2279.77,1659.45
2281.45,1657.3
2283.13,1652.41
2284.8,1647.88
2286.48,1647.48
2288.16,1644.06
2289.83,1643.54
2291.51,1640.72
2293.18,1638.46
2294.86,1637.35
2296.53,1632.47
2298.2,1628.49
2299.88,1627.01
2301.55,1620.59
2303.22,1613.87
2304.89,1610.37
2306.55,1606.76
2308.22,1605.02
2309.89,1603.83
2311.56,1597.32
2313.22,1596.8
2314.89,1594.39
2316.55,1590.81
2318.22,1585.51
2319.88,1581.28
2321.54,1580.8
2323.2,1576.85
2324.86,1574.11
2326.52,1572.37
2328.18,1568.82
2329.84,1566.23
2331.5,1563.64
2333.16,1558.92
2334.81,1555.69
2336.47,1549.7
2338.12,1544.68
2339.78,1543.43
2341.43,1540.77
2343.09,1535.42
2344.74,1533.44
2346.39,1538.03
2348.04,1532.07
2349.69,1529.52
2351.34,1527.01
2352.99,1522.7
2354.64,1519.28
2356.28,1518.23
2357.93,1512.98
2359.58,1511.4
2361.22,1510.8
2362.87,1509.4
2364.51,1507.2
2366.15,1507.27
2367.8,1504.37
2369.44,1503.24
2371.08,1500.64
2372.72,1493.98
2374.36,1489.26
2376,1484.37
2377.64,1483.91
2379.27,1482.66
2380.91,1478.11
2382.55,1476.2
2384.18,1474.53
2385.82,1472.63
2387.45,1470.79
2389.08,1466.44
2390.71,1464.49
2392.35,1462.5
2393.98,1459.52
2395.61,1460.55
2397.24,1462.69
2398.87,1458.41
2400.49,1459.67
2402.12,1456.46
2403.75,1455.24
2405.37,1454.67
2407,1454.17
2408.62,1449.94
2410.25,1449.41
2411.87,1446.7
2413.49,1435.75
2415.12,1430.82
2416.74,1426.34
2418.36,1421.36
2419.98,1418.75
2421.6,1418.8
2423.21,1415.28
2424.83,1412.2
2426.45,1408.72
2428.07,1402.77
2429.68,1397.29
2431.3,1394.5
2432.91,1388.24
2434.52,1383.76
2436.14,1380.59
2437.75,1378.59
2439.36,1377.57
2440.97,1377.1
2442.58,1373.89
2444.19,1366.81
2445.8,1364.85
2447.4,1360.8
2449.01,1357.76
2450.62,1354.75
2452.22,1351.75
2453.83,1348.98
2455.43,1344.88
2457.04,1345.14
2458.64,1344.57
2460.24,1342.33
2461.84,1337.82
2463.44,1332.11
2465.04,1333.3
2466.64,1327
2468.24,1324.07
2469.84,1318.31
2471.44,1312.7
2473.03,1308.11
2474.63,1310.54
2476.22,1307.05
2477.82,1304.81
2479.41,1305.91
2481,1304.01
2482.6,1300.83
2484.19,1303.17
2485.78,1301.11
2487.37,1295.56
2488.96,1291.77
2490.55,1292.44
2492.14,1293.89
2493.72,1291.69
2495.31,1291.96
2496.9,1292.28
2498.48,1289.51
2500.07,1292.28
2501.65,1291.39
2503.23,1289.55
2504.82,1299.53
2506.4,1296.43
2507.98,1297.31
2509.56,1296.95
2511.14,1298.25
2512.72,1299.71
2514.3,1301.41
2515.87,1295.37
2517.45,1292.86
2519.03,1293.02
2520.6,1292.85
2522.18,1288.23
2523.75,1286.22
2525.32,1284.51
2526.9,1282.41
2528.47,1282.22
2530.04,1281.5
2531.61,1282.37
2533.18,1282.28
2534.75,1284.46
2536.32,1286.21
2537.89,1284.92
2539.45,1279.65
2541.02,1278.54
2542.59,1280.44
2544.15,1279.72
2545.72,1280.52
2547.28,1283.63
2548.84,1281.82
2550.41,1282.1
2551.97,1279.44
2553.53,1277.37
2555.09,1275.63
2556.65,1275.4
2558.21,1276.78
2559.76,1276.09
2561.32,1276.08
2562.88,1275.16
2564.43,1271.76
2565.99,1273.02
2567.54,1273.54
2569.1,1261.95
2570.65,1261.19
2572.2,1261.12
2573.76,1261.59
2575.31,1260.35
2576.86,1264.01
2578.41,1261.89
2579.96,1265.3
2581.51,1263.89
2583.05,1264.33
2584.6,1266.83
2586.15,1266.72
2587.69,1266.71
2589.24,1269.07
2590.78,1268.37
2592.33,1268.97
2593.87,1269.2
2595.41,1267.21
2596.95,1269.73
2598.49,1270.1
2600.03,1270.55
2601.57,1269.99
2603.11,1270.7
2604.65,1274.62
2606.19,1271.19
2607.72,1272.34
2609.26,1271.14
2610.8,1271.33
2612.33,1269.68
2613.86,1276.29
2615.4,1278.66
2616.93,1279.6
2618.46,1278.85
2619.99,1277.71
2621.52,1280.28
2623.05,1281.7
2624.58,1278.4
2626.11,1282.73
2627.64,1283.42
2629.17,1281.64
2630.69,1284.77
2632.22,1286.5
2633.74,1286.65
2635.27,1281.99
2636.79,1282.1
2638.32,1282.71
2639.84,1278.97
2641.36,1281.51
2642.88,1285.8
2644.4,1288.82
2645.92,1289.76
2647.44,1288.79
2648.96,1295.55
2650.47,1295.82
2651.99,1293.01
2653.51,1291.84
2655.02,1290.54
2656.54,1289.8
2658.05,1291.87
2659.57,1287.92
2661.08,1285.79
2662.59,1289.32
2664.1,1292.65
2665.61,1295.94
2667.12,1295.87
2668.63,1296.41
2670.14,1298.51
2671.65,1304.2
2673.16,1304.76
2674.66,1309.59
2676.17,1306.95
2677.67,1308.67
2679.18,1312.94
2680.68,1318.06
2682.18,1319.59
2683.69,1319.61
2685.19,1323.11
2686.69,1330.51
2688.19,1330.02
2689.69,1334.67
2691.19,1338.66
2692.69,1338.71
2694.19,1344.35
2695.68,1350.71
2697.18,1356.59
2698.68,1361.82
2700.17,1363.28
2701.66,1363.86
2703.16,1363.98
2704.65,1363.02
2706.14,1362.48
2707.64,1360.33
2709.13,1361.64
2710.62,1357.46
2712.11,1357.49
2713.59,1360.37
2715.08,1360.93
2716.57,1358.63
2718.06,1355.55
2719.54,1351.58
2721.03,1353.38
2722.51,1355.88
2724,1347.72
2725.48,1341.49
2726.96,1337.61
2728.45,1331.52
2729.93,1330.19
2731.41,1320.99
2732.89,1312.3
2734.37,1307.84
2735.85,1302.09
2737.33,1293.89
2738.8,1288.66
2740.28,1282.66
2741.76,1276.36
2743.23,1265.99
2744.71,1259.82
2746.18,1252.2
2747.65,1244.19
2749.13,1237.67
2750.6,1229.32
2752.07,1222.52
2753.54,1216.22
2755.01,1206.54
2756.48,1199.41
2757.95,1195.84
2759.42,1189.69
2760.88,1183.55
2762.35,1181.2
2763.82,1179.7
2765.28,1175.91
2766.75,1172.09
2768.21,1173.5
2769.67,1171.25
2771.14,1168.79
2772.6,1167.51
2774.06,1166.17
2775.52,1168.67
2776.98,1174.59
2778.44,1176.75
2779.9,1180.41
2781.35,1182.11
2782.81,1184.41
2784.27,1189.85
2785.72,1195.68
2787.18,1203.67
2788.63,1213.5
2790.09,1222.84
2791.54,1237.88
2792.99,1250.67
2794.45,1263.39
2795.9,1277.82
2797.35,1295.33
2798.8,1315.25
2800.25,1333.8
2801.69,1355.97
2803.14,1386.89
2804.59,1417.56
2806.04,1448.15
2807.48,1483.38
2808.93,1528.24
2810.37,1580.58
2811.81,1639.16
2813.26,1704.83
2814.7,1777.52
2816.14,1857.75
2817.58,1947.52
2819.02,2040.26
2820.46,2144.25
2821.9,2248.02
2823.34,2350.52
2824.78,2456.24
2826.22,2566.85
2827.65,2672.16
2829.09,2775.8
2830.52,2875.96
2831.96,2976.19
2833.39,3074.21
2834.82,3168.72
2836.26,3257.41
2837.69,3350.91
2839.12,3444.15
2840.55,3534.71
2841.98,3626.42
2843.41,3718.45
2844.84,3810.11
2846.27,3896.02
2847.69,3985.54
2849.12,4074.38
2850.55,4161.81
2851.97,4251.61
2853.39,4339.86
2854.82,4430.39
2856.24,4518.54
2857.66,4605.86
2859.09,4693.85
2860.51,4775.03
2861.93,4856.8
2863.35,4933.49
2864.77,5009.59
2866.19,5082.41
2867.6,5149.48
2869.02,5207.73
2870.44,5258.54
2871.85,5302.02
2873.27,5353.36
2874.68,5377.9
2876.1,5397.28
2877.51,5406.1
2878.92,5405.86
2880.33,5402.99
2881.74,5400.41
2883.16,5396.65
2884.57,5387.3
2885.97,5382.09
2887.38,5375.59
2888.79,5372.62
2890.2,5365.84
2891.6,5363.46
2893.01,5363.05
2894.42,5361.85
2895.82,5360.98
2897.22,5358.54
2898.63,5354.34
2900.03,5347.36
2901.43,5341.41
2902.83,5330.52
2904.23,5322.12
2905.63,5310.54
2907.03,5295.72
2908.43,5275.53
2909.83,5250.23
2911.23,5224.29
2912.62,5187.31
2914.02,5149.53
2915.42,5103.65
2916.81,5056.14
2918.2,5008.8
2919.6,4953.45
2920.99,4894.68
2922.38,4835.14
2923.77,4774.43
2925.16,4708.42
2926.55,4641.54
2927.94,4572.68
2929.33,4501.86
2930.72,4417.07
2932.11,4345.35
2933.5,4269.53
2934.88,4198.19
2936.27,4125.54
2937.65,4051.42
2939.04,3976.54
2940.42,3898.86
2941.8,3822.56
2943.18,3742.45
2944.57,3665.62
2945.95,3585.2
2947.33,3507.54
2948.71,3425.34
2950.09,3342
2951.46,3262.07
2952.84,3181.93
2954.22,3101.85
2955.6,3023.28
2956.97,2943.02
2958.35,2866.61
2959.72,2793.06
2961.09,2714.33
2962.47,2638.83
2963.84,2565.07
2965.21,2494.14
2966.58,2427.29
2967.95,2361.35
2969.32,2305.66
2970.69,2252.73
2972.06,2203.84
2973.43,2160.33
2974.8,2114.5
2976.16,2074.13
2977.53,2041.03
2978.89,2013.77
2980.26,1983.28
2981.62,1958.1
2982.98,1933.07
2984.35,1909.85
2985.71,1886.24
2987.07,1862.4
2988.43,1842.68
2989.79,1818.08
2991.15,1796.2
2992.51,1773.36
2993.87,1751.54
2995.22,1728.74
2996.58,1707.98
2997.94,1689.46
2999.29,1668.66
3000.65,1650.52
3002,1634.19
3003.36,1619.37
3004.71,1606.45
3006.06,1596.35
3007.41,1583.72
3008.76,1571.67
3010.11,1558.9
3011.46,1549.41
3012.81,1539.33
3014.16,1527.24
3015.51,1515.18
3016.85,1510.89
3018.2,1500.2
3019.55,1491.14
3020.89,1484.11
3022.24,1475.98
3023.58,1467.54
3024.92,1458.79
3026.27,1447.76
3027.61,1437.93
3028.95,1423.5
3030.29,1411.42
3031.63,1403.34
3032.97,1387.11
3034.31,1367.41
3035.65,1346.47
3036.98,1324.33
3038.32,1305.64
3039.66,1290.27
3040.99,1273.97
3042.33,1256.16
3043.66,1237.24
3044.99,1226.04
3046.33,1209.43
3047.66,1195.35
3048.99,1184.46
3050.32,1174.86
3051.65,1165.9
3052.98,1154.99
3054.31,1146.23
3055.64,1137.83
3056.96,1129.1
3058.29,1119.48
3059.62,1109.28
3060.94,1099.35
3062.27,1093.72
3063.59,1083.39
3064.92,1073.77
3066.24,1065.15
3067.56,1058.44
3068.88,1048.84
3070.21,1036.75
3071.53,1024.17
3072.85,1016.28
3074.17,1006.12
3075.48,996.93
3076.8,989.87
3078.12,979.98
3079.44,966.16
3080.75,956.74
3082.07,946.14
3083.38,936.52
3084.7,931.83
3086.01,916.22
3087.32,908.59
3088.64,900.32
3089.95,894.64
3091.26,886.84
3092.57,876.09
3093.88,869.52
3095.19,859.38
3096.5,852.93
3097.8,849.18
3099.11,839.93
3100.42,835.5
3101.72,831.15
3103.03,824.33
3104.33,818.92
3105.64,811.5
3106.94,806.41
3108.24,804.2
3109.54,798.4
3110.84,798.39
3112.15,797.07
3113.45,794.2
3114.75,790.04
3116.04,784.85
3117.34,781.72
3118.64,782.11
3119.94,778.63
3121.23,772.48
3122.53,769.26
3123.82,770.33
3125.12,771.41
3126.41,770.46
3127.7,770
3129,766.62
3130.29,763.31
3131.58,764.63
3132.87,765.02
3134.16,761.93
3135.45,761.39
3136.74,760.78
3138.03,755.39
3139.31,755.95
3140.6,755.8
3141.89,753.85
3143.17,753.73
3144.46,757.87
3145.74,761.33
3147.02,755.07
3148.31,757.8
3149.59,754.03
3150.87,748.46
3152.15,747.04
3153.43,747.52
3154.71,745.49
3155.99,747.49
3157.27,747.66
3158.55,745.56
3159.82,745.75
3161.1,746.11
3162.38,745.2
3163.65,742.2
3164.93,738.03
3166.2,735.01
3167.47,736.46
3168.75,740.2
3170.02,741.16
3171.29,740.46
3172.56,738.93
3173.83,741.59
3175.1,744.28
3176.37,747.41
3177.64,745.95
3178.91,744.79
3180.17,742.46
3181.44,743.23
3182.7,741.88
3183.97,739.43
3185.23,736.26
3186.5,738.4
3187.76,736.39
3189.02,733.21
3190.29,729.82
3191.55,640.67
3192.81,813.33
3194.07,909
3195.33,744.33
3196.59,776
3197.85,669
3199.1,723.67
3200.36,767
3201.62,847
3202.87,781
3204.13,739.67
3205.38,669.33
3206.63,724.67
3207.89,710.67
3209.14,718
3210.39,639
3211.64,815
3212.89,663
3214.14,645.67
3215.39,578.33
