0.14867267728316058, 64.78932815302788
0.15900940150929088, 61.21647452965061
0.26238080811037534, 62.163974268994174
0.28494548769238826, 63.84685374965443
0.8593077885318117, 63.59669767521524
0.8602326623719918, 62.13539700772946
1.1966267032050837, 64.52435954088536
1.3023893778219424, 61.69365581530916
1.5616248132402912, 62.78747327696306
1.8726085038131117, 64.25620867908682
2.1336070079142413, 62.564377621949006
2.183270320417588, 66.2335049511897
2.4440536461412155, 64.88165573050654
2.444825714738238, 63.66178734721405
2.654206428980226, 61.3889031829852
2.7227918560155526, 62.54014324654252
3.0417687799221103, 65.06909682878319
3.1032286571974357, 63.789178665722446
3.5368416829991016, 63.15694027016228
3.7149877382548144, 65.43272943997083
3.744260056223668, 63.984554913468486
4.056089984020305, 64.11623550196032
4.056733374517821, 63.099678515883255
4.315655157068635, 64.68906750824974
4.338245962204182, 66.33066861432383
4.902381334340147, 64.63823965894589
4.938843192963725, 65.69790380835661
4.961398904072135, 67.39495347730761
5.4277856569168765, 65.25812495695372
5.562256415532948, 66.35094516333649
5.6134005984980835, 67.68029716295646
6.103626431526964, 69.69300395833028
6.195678649608547, 67.61718055515004
6.536360351948845, 71.44535401537696
6.601374961722952, 67.28686387372474
6.678007595405971, 69.41304428134472
6.859085025503438, 70.79076852320304
7.019089093452644, 73.52217564866243
7.095972215396424, 71.99317345013434
7.2724312506333195, 74.80102149422731
7.478766583187062, 77.33984039742991
7.583628511107397, 75.9323164523616
7.718792599578647, 73.58289945657094
8.011962160437774, 74.51514164983053
8.057521152194342, 78.15027345068813
8.155742064674586, 75.50167374602347
8.192024693088142, 76.84452162726994
8.20527669907843, 79.37411247247958
8.469185830302498, 73.08349056110532
8.61397764481624, 74.29647466607437
8.778404664996712, 77.3406982514266
8.779176733593731, 76.12082986813412
8.808841324799255, 78.53307241412519
8.841612419790286, 80.14389703323394
9.062375159599886, 81.13940609260317
9.123021772546819, 74.9509314801488
9.296344738672959, 80.36699268824802
9.369955045493894, 79.05473342951208
9.40185005709081, 77.94291175710264
9.402611402512873, 76.73998599024478
9.455251468384732, 75.70584299723558
9.809564470732424, 74.42399466268228
10.01649815644886, 76.0174155688332
10.026174749531515, 77.15583071514001
10.048722661967227, 78.86520228695257
10.349877376642334, 74.95607860412893
10.373146053549684, 80.43353764827692
10.649620141625613, 77.75804422081605
10.656210298578754, 79.07947638978801
10.679309038694376, 76.48134301024288
10.983218114588245, 80.83128666727447
11.222392098135268, 76.28712486539239
11.273676754692358, 77.39452858971886
11.275188722361522, 75.00561967243776
11.32471549310373, 78.89048298427926
11.374608638990358, 82.19647356793797
11.583394217022144, 80.8639046158304
11.846305020657562, 76.15064029451908
11.846926964805162, 75.16796854131124
11.896099155895405, 79.61306770325743
12.00897558477981, 81.9700644518617
12.02492582011371, 77.67633362763137
12.311218994163442, 80.82101191599594
12.54617448068174, 79.20856809746842
12.569141376808107, 83.98945276006879
12.569947759564995, 82.71536800418554
12.625260040636546, 77.45912499566958
12.823430747776799, 76.47061983528427
12.831014177107532, 80.91623370962847
12.886367206243923, 75.59560875866096
13.169877228974846, 79.40415880871362
13.285875940030772, 78.00133774180574
13.46567601020835, 80.2239026416002
13.471719591615026, 81.62666549698687
13.524192375957535, 76.94553393538013
13.539880380921987, 83.44883317135506
13.556361900833386, 84.7870854061907
13.91384896296883, 78.49022260699054
13.977868462106779, 75.90400727047084
14.078756381387448, 80.77541697607188
14.079502714364567, 79.59621087222249
14.251871049840014, 74.2000143457341
14.341037377213626, 77.05724899335377
14.577859206802104, 78.36292320141035
14.666747740115865, 75.79213238612758
14.755180691682098, 79.80810080940479
14.966488896622904, 74.4897813410534
15.067267975677739, 79.53315860346581
15.149351735350974, 77.60973556235504
15.277527990266337, 75.8709798915983
15.30949530670012, 72.29814054595744
15.570335005686387, 73.20399760129028
15.59022292084297, 74.63595608769764
15.713013282415785, 77.7563714055225
15.848987430161058, 76.47383678777184
16.12576483090011, 73.31910935258891
16.203379784003438, 75.06661309160236
16.263963577884645, 77.90881206073422
16.267763871089983, 71.90434879630567
16.424210704466248, 71.12983531539456
16.778120515435496, 75.17858142075599
16.786493170443187, 73.68366666353921
16.9043810751445, 72.22938967565133
17.023303766229326, 69.14015020182282
17.23533953859107, 70.88599031683555
17.25237222969534, 76.82920280590048
17.305580623840008, 74.89710114185652
17.41053906033497, 73.33709364887665
17.7545299344675, 71.93677567738052
17.82853914339689, 69.99425108727681
17.92976591500625, 74.33027411354394
18.32068461971018, 72.70742881530656
18.347551534569, 71.32628388063645
18.481741346001158, 69.21246014496045
18.726790403919793, 70.55675820796321
19.022782712929924, 72.24411616926116
19.128903541590404, 68.84752905476873
19.229811477464324, 73.68731254302514
19.33582614669271, 70.45845733123542
19.602187514841596, 72.02718123357451
19.907891445972588, 70.10405639885306
20.25578034739079, 71.93195943994198
20.532141076188587, 69.43557367193276
20.56841298142718, 70.79536416961386
20.667989977250343, 68.35092881413846
20.85295702460055, 71.7967739051208
20.893635388806068, 73.23468732802183
21.1561011806807, 69.22454158874714
21.205084643891674, 73.96783079994262
21.20719353496687, 70.63578290113445
21.260802260976654, 68.0711568901981
21.503204226562644, 72.29409637711589
21.624124874924583, 68.98155444418484
21.72869727712103, 68.03148114285122
21.81046363081549, 70.26010004085089
22.03716319174493, 73.47830254426029
22.090132612276236, 71.92377918933067
22.1405422577567, 74.41370041472197
22.402916902644193, 70.54756691514154
22.482753621004846, 67.61129353209773
22.574559700442528, 69.23118995722149
22.835243147450825, 71.9484424917355
23.094722535099493, 68.74552204452426
23.138370146451045, 70.18557703865275
23.219282935418804, 67.50475878888386
23.546425557056345, 70.82143680358466
23.792369234142953, 69.44847211952583
23.87060643777032, 67.86604399958964
24.201830299797116, 70.21017293824355
24.318232508607906, 66.99643740314548
24.38160003870837, 65.44033314585056
24.509248713415772, 69.09832981948419
24.858764167286978, 67.18289196932594
25.144417599503917, 68.77824304696942
25.20051228937691, 65.21926417090367
25.353832015152925, 66.45211065966035
25.462115099911493, 69.55030040027256
25.605645864588304, 67.53815381946927
25.731079437725683, 68.82907089627327
25.800345020429816, 64.99437161814296
26.17183117354753, 66.87369019422826
26.201060111399507, 65.49405625239322
26.427845610916833, 68.57647578694805
26.513399390006676, 64.82096256024072
26.748712640634956, 66.37675876996411
26.9616924423267, 68.37333596053199
26.98111434009855, 69.53150090472568
27.098187736374953, 64.89843749931674
27.43763412896002, 66.57154231858516
27.60295975120202, 68.19597464671642
27.683010396903107, 64.921696065802
28.071941382408873, 66.4394471006616
28.279018401230587, 67.80640170046979
28.68304350652768, 66.00973373615321
28.850847790661376, 67.82473832964902
28.877548496308336, 66.7062039497155
28.893389485235538, 64.49331952377177
29.269019444522634, 64.2108139050953
29.4218890267327, 69.08835726677268
29.424430419197897, 65.07295717176825
29.461722940910228, 67.75364367967339
29.475697918675053, 66.20746908239013
30.09912186441923, 66.8435678209354
30.100151289215262, 65.2170766432121
30.36076120588099, 64.13921373401448
30.46233724661758, 67.92339153926832
30.723060522561433, 66.66642097061901
30.7549426663484, 65.57493043793113
30.82949103651471, 62.780531093494815
30.969537294631692, 64.45116621238205
31.32450502340472, 66.82840218777963
31.37874835712111, 65.607872031404
31.573465487046356, 64.60020813175927
31.713024034741125, 63.1301323327657
32.22129394923969, 65.00784605341951
32.28463896067274, 63.48732129063728
32.5944293926465, 66.84140527928258
32.753162814434326, 62.45408210808888
32.85539245821601, 65.20556710208984
32.96019362147825, 63.894051316817695
33.05914791286435, 66.23845593476568
33.377059728788296, 62.34289044317869
33.4271878909261, 65.2775553499787
33.569211747606595, 63.82358473851821
33.99925211788848, 64.92484867923982
34.17991382998949, 63.22590003348703
34.71239717488785, 64.60815349377623
34.811461848049134, 62.97318794407134
35.00407366129084, 65.29192440442324
35.04063968789973, 62.27570975206294
35.434887938428304, 63.60589815932969
35.50871699801839, 61.94800952532754
35.99015232037124, 63.98241027847671
36.16894134833842, 63.10886980870488
36.3235365106712, 61.348703191529175
36.70270178159576, 64.60675641726733
36.755468380932136, 63.372690550329644
36.756355723659965, 61.97068904036502
37.352754587714685, 64.23783630599101
37.36329241832011, 65.69013731464867
37.370039273430486, 61.56918120038945
37.37972873432309, 62.68726520697473
37.56653256963077, 60.88420929414708
38.004139212163466, 61.76464323353516
38.0551886737498, 63.24365501166093
38.12357535072809, 64.44310411003966
38.36852342043229, 60.997721760494734
38.640178973246464, 63.00204400788498
38.65918794549561, 61.71587423382336
38.946679930755195, 63.937867667217525
39.00718499779268, 61.02612285531371
39.25075119380274, 63.40957827218729
39.26185182451991, 62.298013955976856
39.61620235797995, 60.9568664639024
39.9273299178168, 62.1982884288617
40.149690983291954, 63.18040465914158
40.26618760809664, 60.69468483616417
40.498965217780835, 62.52328641550752
40.786473376295085, 60.014781927912935
40.863495261229104, 61.5259453589563
41.06944455948434, 64.67469845380515
41.13013007033943, 62.662632542212634
41.39435676073049, 60.563819208969186
41.850992443168316, 61.886458501065064
41.85225777781343, 59.88722976178016
42.12648919044087, 60.75516354293077
42.474609406061745, 62.21759014378721
42.68414024475316, 59.70750934947371
42.735343405180565, 60.94367695870329
43.28095463183753, 61.31813022825826
43.28183929377162, 59.9203643724023
43.724095198589936, 59.32190397796178
43.96867243681039, 60.10791270242854
43.9825880541424, 61.58899762771297
44.34580772561072, 62.66204429947205
44.518578295038274, 59.56378816738548
44.55494824073364, 60.76867474337863
44.85741898142639, 59.260438739098966
45.22067082241959, 60.28265756155419
45.3759145155655, 61.40910564460718
45.77735801649131, 59.58451453269835
46.062524769753345, 60.77543034360256
46.226471256354614, 61.86757322011852
46.634407775058925, 60.70905389060871
46.67229122030559, 59.52261117554438
46.98597087644815, 61.85817347234509
47.22188457457754, 59.4722428908816
47.23206875680628, 60.98205520188018
47.504608741772216, 58.65550461074771
47.85567821347725, 61.32504667610656
47.913652522732264, 60.0765152461497
48.115026729649706, 58.506689224244084
48.24820271363123, 57.16504456678517
48.54790816196565, 60.02597048866475
48.76720170083464, 58.51825563068808
49.13011951492788, 60.068236955081645
49.3388697064823, 58.79157863720831
49.547610247179264, 57.530168674126145
49.77142946664265, 60.833600965040695
49.93979581841045, 59.772614340293885
50.01483506488873, 58.549406453942865
50.4890102871672, 57.713356246335884
50.63803525371544, 59.539041122090495
50.91099222170872, 60.32444796064631
51.13979262662247, 58.26594419808221
51.15771105197832, 59.82289071202844
51.355991947549406, 57.224881132356195
51.726441031416265, 58.42005196955743
51.83375361724445, 59.458731690433744
52.39177538703388, 57.825347043094176
52.495011988006915, 58.98583967475865
52.811934546423, 56.83557491207311
52.98442177813731, 57.546932570978115
53.08158804082901, 59.17220845553945
53.60223035459483, 57.928963550837175
53.7572467164316, 59.41459510230406
54.0445505984629, 57.228847457788945
54.2548034642682, 58.14113943935171
54.588725991992895, 59.87191706793924
54.64261423542995, 56.86565352194052
54.84943211085683, 58.64205468558532
54.954283315602204, 57.25147335695163
55.473354684236575, 58.49032175992087
55.594886537211245, 59.77142946664256
55.83780144435935, 57.62456835767851
56.430180368841654, 58.029504039249176
56.565877858673, 57.184088925511666
56.86087589983003, 59.50823652898638
57.01061510617675, 58.532047165566986
57.1507648582509, 57.10569179338921
57.685933499693995, 58.00831504553095
57.87301205253157, 57.07496989713276
57.87385538488051, 59.0006501492209
58.35007691514769, 58.19211026432167
58.5117793297594, 56.936365201381925
58.75978161252673, 59.23721046818568
58.878461361233654, 58.40582314124695
59.0910329859669, 56.95824047829751
59.47729706679771, 56.82276082210604
59.49402521973315, 57.771332878945465
