0.21369174479372255, 12.153445360486728
0.29500070633449305, 10.624535074886865
0.4480633056938199, 15.197111340741117
0.44892115969051005, 13.841702025971685
0.8374178891049215, 12.312070363147328
0.9290062811278421, 10.96909213265721
1.437769461674506, 12.067445497318616
1.4887331378611677, 13.681998206921321
1.5794042202922167, 11.228249825057105
1.635947768734873, 14.894683659321785
2.0611741057037616, 12.734040945446196
2.112310782446423, 14.075252776570409
2.1288964703431343, 11.337626209635005
2.218502384061628, 10.5668443936095
2.677929155752965, 12.173114727125125
2.7154958077737117, 13.833981340001486
3.0245285485335653, 15.514404049473953
3.130551306991995, 11.493040758701923
3.3185457210965144, 13.80618687050874
3.361056675902466, 12.348607144733592
3.5738442573481475, 15.378678221310352
3.65651231553729, 10.972609334043625
3.8806373953473834, 12.782681267058493
3.957989017911382, 13.772859242737354
4.1040082091130525, 15.35918786179235
4.296589351992209, 12.675878444470655
4.502812091208886, 15.392594820236724
4.564443110356551, 16.580177868363805
4.56624717731159, 13.72975207940371
4.997675892374188, 13.810819282090861
5.128300248132605, 12.767239895118081
5.1771764795939905, 17.67995527065972
5.1961136065709095, 15.138348341967884
5.200304836097592, 16.33879245976388
5.609663572025001, 18.82669160073442
5.647001667230915, 14.590608565081624
5.802487704130888, 15.334153516712263
5.832718907901226, 16.851148210298106
6.201346919891675, 14.854827596061995
6.2577851343338775, 18.77123133984844
6.412475511651921, 16.665060376701234
6.754448284257235, 17.08439013345803
6.840255130276104, 18.40484189786234
6.8534231891252855, 20.000352848296117
6.997349643419872, 16.606994384300307
7.136836828211775, 23.48996968581342
7.190445429291371, 21.811594582215562
7.281856921421946, 18.839881105933515
7.501808005379393, 20.400103062412555
7.53919703566636, 22.928306022406133
7.951266130658665, 20.74270850234042
8.035138515915, 19.64379753258116
8.05438875960071, 22.08327694296713
8.084647414698944, 23.556898538480354
8.120487022798498, 25.599718515854192
8.707824727419082, 24.582677455021837
8.708596796016101, 23.36280907172936
8.70922946333866, 22.363194702086915
8.748356184127667, 26.252704723077144
9.281064214356926, 22.373060023048836
9.281720472664395, 21.336171897250225
9.331527475712187, 24.77826816626704
9.332288821134247, 23.57534239940918
9.382534044598684, 26.325050410131297
9.412985751549003, 27.17467081299982
9.931706641910358, 26.939478122712572
9.95066215147292, 23.06506224704505
9.954801297006947, 25.65156353489698
9.95557336560397, 24.4316951516045
10.009232133096896, 21.788003597306584
10.542952124665822, 23.34978807356532
10.578611277049644, 25.67772808179599
10.579383345646663, 24.457859698503512
10.601149441144484, 27.40250203218548
10.678191801853314, 28.14911133217923
11.121730897410865, 24.121979221156835
11.149109920468065, 27.798643410511303
11.201906544694323, 26.517138217556692
11.202667890116382, 25.314212450698818
11.627288767774184, 23.244394582543464
11.826617271433536, 25.120122983947823
11.84915153619203, 26.85105788576807
11.858525150840405, 23.98797017181684
12.280872409030552, 28.378752878205958
12.369550002174053, 23.859659724026272
12.473133574451106, 30.33887777280843
12.478386142985, 26.60299510505868
12.487667306225378, 24.97640180185958
12.638352537540245, 31.095148946836545
12.863012131184052, 30.35946626872898
12.905990616418192, 28.163188466404506
13.07465543534231, 24.511690036795784
13.094619842480268, 25.822791192636174
13.123681791253118, 29.187208782252767
13.404532466594302, 23.508000860669043
13.53046543330832, 27.13891079435723
13.591748378196828, 28.876451171952
13.750070694873356, 25.138674076626216
13.829835031803041, 22.316763354516084
14.009019285361566, 26.685706527906163
14.049930878622435, 23.64825998912778
14.360889548453686, 25.156528162932318
14.658761801790549, 23.073536804709306
14.956849298493855, 24.010617517329422
14.997438660347216, 25.589154656637803
15.179416788399502, 21.810268807857028
15.208513636232668, 20.639337095739336
15.516539839407985, 26.780902585918795
15.517371099930775, 25.46751095990723
15.570227773936798, 24.09112711491875
15.570999842533821, 22.871258731626256
15.831631971490532, 21.75830040267121
15.833240447734324, 19.21690793747854
15.936548051444406, 20.265216244608084
16.272478314960537, 23.38694693856121
16.37678888949813, 24.365712853371733
16.47154126685146, 19.81530705663357
16.520719279093818, 21.31773875949635
16.65224277307251, 18.853520984480866
17.132122545709386, 20.41222025011578
17.157161159237766, 21.919791417548012
17.209022007729295, 17.55363626964717
17.27410657345432, 19.021179356841003
17.703833980215634, 20.61692566007582
17.82508965120092, 16.775047982251778
17.88475100136406, 18.514588719393373
18.21157248480089, 16.293938950794114
18.458265635223, 19.60374647411072
18.48523710103767, 18.05741102920308
18.53789325167196, 16.99785411154194
18.773358089000794, 14.580636012370093
18.850396952295164, 16.064973634058646
19.10842513693276, 19.066247329309945
19.109218651879694, 17.81249371314823
19.44271582699772, 16.56478796766318
19.51037262708163, 13.707447875489763
19.563933354117793, 15.129953627857404
19.774002741293266, 18.80929432168155
19.835949665175214, 19.497747889644756
20.09729488526667, 17.258105567787638
20.17419174772902, 15.233297182055992
20.20335780878237, 13.953008582042116
20.61891300795373, 14.47308256753513
20.637408340122356, 18.105322174918186
20.66937626930899, 16.878290710753348
20.82631350922003, 15.328934904899043
21.293465051900604, 16.463947230352332
21.321416794626074, 17.93194988218724
21.372342046102467, 15.044038018206791
21.916352838896856, 17.947176790628475
21.91712490749388, 16.727308407335997
21.917875529740982, 15.541325256912756
22.1610664146275, 14.606478864020346
22.48810180451546, 18.09258304306735
22.54082765578699, 16.922899118581213
22.541599724384007, 15.70303073528872
22.745724133228094, 14.268094455689834
23.16453040408009, 17.1184898298264
23.165302472677112, 15.898621446533923
23.36939763649859, 14.509892302665818
23.722143455817267, 18.70549806913509
23.787962928364244, 17.741034475223998
23.789069560019975, 15.992556459171439
23.997849776464285, 14.66845881528117
24.141615383134486, 13.39599325881666
24.166046544417725, 17.33861808041479
24.360464660864935, 16.69706905395269
24.444414252980977, 15.47617124586418
24.72710073587507, 12.372198129642527
24.749739307880894, 13.938327580689688
25.109023769106216, 16.74879764995306
25.24511587177603, 15.27989425142161
25.350192263195538, 13.53351797766095
25.961196091543897, 13.2591119304699
25.983533001141453, 14.928517254377596
26.045015397084192, 16.350924966288474
26.59611796163746, 16.262780468128625
26.608767018818654, 12.704702338759375
26.621052267918515, 14.201649764309877
27.20340710346057, 15.01281570711896
27.222265593821135, 12.595454632280976
27.244039766515684, 13.393902239699727
27.720268221485036, 11.921273303811233
27.81463522488516, 13.015073914761643
27.89700529332979, 14.28982350749233
28.3665999327051, 11.564743055258518
28.442825621898443, 14.333895756572261
28.492015123256834, 12.884704617379029
29.039800856607194, 15.690377388837547
29.103436466081625, 13.710707720677163
29.116361262047462, 12.063738342547168
29.35414000734415, 11.857485731628827
29.710164734791668, 12.564663801328365
29.74263527450743, 14.06367174761506
30.19678210803736, 11.104976205732797
30.288954230711667, 13.31991233248526
30.393408677983572, 12.556207811932424
30.573291469796544, 9.954520465829575
30.887789936275738, 11.736850013344352
30.93332911569, 13.708391514886102
30.965189813127047, 12.650786215067441
31.380820074523115, 13.052261885518135
31.509375344931563, 11.544330029473656
31.920095691975362, 9.747450851104858
32.13286752906185, 12.072612117980455
32.162174941057835, 10.568989028601166
32.163054241404446, 9.17969448096251
32.31599888583922, 13.938639527597573
32.69983922275297, 9.810088490429806
32.71142515373111, 11.060784469846169
32.774223742805916, 12.750383064083096
33.043630645831264, 14.200713923586207
33.32033911187415, 11.154903308340096
33.3566508460483, 12.451764087835471
33.45478934326958, 9.933380492339722
33.7748519886407, 8.791247468086539
33.82756979753101, 7.6342705059263665
33.95887660678143, 11.379354679045363
34.231689802926496, 9.79451844038988
34.59763469271645, 11.255272225952766
34.688205692181214, 8.959654930811652
34.99290011298395, 9.935320876379862
35.541068816868545, 10.832135742085683
35.54210360325206, 9.197173256145064
36.11424396475664, 8.724174008720382
36.20675065048966, 10.410500502712779
36.268786362260265, 10.958669206597378
36.81575675134323, 9.185645843064535
36.930017159144256, 10.529343918897027
37.15427666161187, 8.215734668057465
37.397601497693145, 11.481791905250475
37.49068142561992, 10.58775458477875
37.548786021450695, 9.133370365141275
37.60033814462889, 7.471400797126307
37.9338809698346, 8.498343944091872
38.14848846592785, 9.701024609807817
38.50608388319311, 7.9265127674652405
38.76481979737797, 9.809573778031776
38.916914062805986, 10.967939026969376
39.077839997595014, 8.06062394228104
39.180450058774035, 10.21104944848247
39.70209498939849, 7.383669907143428
39.727321258488644, 8.59474528696984
40.33641689785312, 7.228419780092551
40.34880041022897, 8.570111229587638
40.91511662547988, 7.343243537549441
40.96625902124919, 8.675419306575193
41.53668393007409, 7.001541908082359
41.57288475598154, 8.473637748987215
41.576102707910664, 9.449879761559657
42.14414474482202, 9.39162731084464
42.14506479323347, 7.937950820754438
42.561359891476975, 7.288984272258816
42.83215437334197, 6.546940565122384
42.857187778471086, 9.236129018887581
42.92334210855507, 10.317208880572778
43.19532257357049, 7.701311795767637
43.496056159919945, 8.937779653896058
43.70573712306078, 6.190502229497895
43.791640477654276, 7.358470445990676
44.120241451086194, 8.370952625583456
44.42001316864186, 7.020315123670628
44.69205475575454, 8.41470317941463
44.79757079734735, 5.973679631834628
45.047492911605616, 6.848515238322236
45.4199674629305, 8.232881024816294
45.64585257319046, 7.262104847029221
46.25283431733143, 6.497828423811924
46.30401245701727, 7.773528804722275
46.806193037896, 8.320768166777114
46.83921428923999, 6.994005047968585
47.084791846495875, 6.199509696463139
47.53715510965376, 7.232243357906356
47.76068964890006, 6.064075996735781
48.12368520601174, 7.491223351978377
48.349872709805545, 6.042665390735067
48.79950794619122, 7.474387967293339
49.008304247397966, 6.124876398751141
49.37132661244704, 7.509667212907175
49.632015038072296, 6.307760147670393
50.16968843446613, 5.534458385529604
50.17759409520438, 6.733041266529227
50.78600505984776, 6.44850181900226
51.03620675652221, 5.388194279094023
51.50340834068593, 6.444141061185761
51.77425286403406, 5.6230318106877775
52.043859218113646, 6.758230004507027
52.276433853414694, 5.387367062740083
52.699282726410594, 6.117316560405314
53.13312361968013, 5.1250475656095205
53.32288092374785, 6.478097781888053
53.78109720217457, 5.303395411521279
54.01339334130312, 6.7193324532856735
54.3920458061719, 5.572561400549205
54.809897909419384, 6.1140674383928655
55.039269838736736, 5.1099278889178805
55.35149116241936, 4.623202977546157
55.50624802342214, 6.518845846730784
55.64812175565323, 5.302071865354947
56.02717986291186, 4.818150298293844
56.27619514750889, 5.632373840711722
56.51480851930473, 6.2946977589433715
56.82127998882596, 5.665127931811043
56.99994952998647, 4.980376616596374
57.58622763173293, 5.637508096881902
58.08913917570468, 5.029825771976988
58.25027275141618, 5.97661063298996
58.73122144587685, 3.564825609130466
58.78175976945682, 5.85143543730635
58.80842026319768, 4.796435869002636
59.45775944202311, 5.555046881450139
59.4584350020455, 4.487662046069218
