-0.03303347070675322, 24.36168813794609
0.27488403011212625, 25.981451289323928
0.4560225823068542, 23.155744563278432
0.5070675759036192, 24.641815764918633
0.9612530128634003, 25.728984858098215
1.0982308497848, 22.860621342067333
1.1402791761853894, 24.480770527743672
1.3272778669008964, 22.369843070561274
1.626853350354823, 25.436113503628405
1.753112301587585, 23.076157158735583
1.7679681881752547, 24.245004675574947
2.1588279154169125, 22.715343767727973
2.366192672766685, 23.627671493207245
2.3888546407905924, 25.15683523566979
2.9527488111209994, 23.845505133080906
3.030422588498398, 25.500066519081614
3.042514040581734, 22.823004444312502
3.4903853146867174, 27.041787424365367
3.6440755772202866, 25.146845135944716
3.665680630126909, 23.86572597728859
4.012060627640215, 24.16640380312826
4.081761264871238, 23.555611757485337
4.173006905229117, 27.23438994418879
4.273482441838523, 25.717036177430032
4.546239877473797, 28.913853606207653
4.796619578852573, 27.572298633484777
4.9121853800166, 25.680087180286904
5.210103775500256, 29.53928636006077
5.36155074983248, 27.53819893711639
5.532529093753917, 31.182952489676126
5.832265960990972, 29.887378491175795
5.863534739170303, 28.39605293380589
5.950778490633629, 27.44619409597142
6.156159460616058, 31.492905861855007
6.392015693830876, 28.45728226281959
6.41861989090321, 27.491231430797612
6.4482673250288, 29.930582163084082
6.622626149855941, 33.70998662359921
6.779754977159575, 31.857922737446387
6.83283469320474, 30.12913247061786
7.141790810112463, 34.80143426358727
7.182356580980921, 36.41724515905179
7.283557310593958, 33.754086446557594
7.299305671714608, 32.3394361857882
7.610629465653199, 33.270808269994006
7.685254720983965, 38.56864647417444
7.765021738707395, 35.742500097955656
7.801321217824457, 37.05872386766201
7.85933849637342, 34.568912937784575
8.178395844092167, 39.70870226624993
8.248962913859843, 43.20475755165851
8.281235381215305, 41.49655578075054
8.388231220952404, 36.71745116519328
8.388906780974795, 35.65006632981236
8.42628776888054, 38.19097625213189
8.797547064179978, 35.36182738692469
8.843764561004482, 39.78179142676788
8.960115298575479, 36.64938045055597
9.063147852847871, 38.13226686923346
9.120602624276154, 41.224769252013644
9.459708019897535, 35.8096271731966
9.57147781712621, 39.91510193785342
9.62525239490869, 37.08843012606165
9.671988280648337, 38.342563648993334
9.787975502588234, 42.824835462874645
9.848295659553672, 41.39002869694734
10.207385683157215, 37.25403884012256
10.258503058184951, 38.6257473808291
10.27488806952172, 40.11648316357628
10.516345374456597, 41.92069309428044
10.623948860774684, 36.1815068807615
10.726247949879903, 38.82326826356686
10.83108843145032, 37.449629551367764
10.879117532089976, 43.70081162524422
10.933619856012983, 39.72430091142306
11.087919194884202, 42.34282874848472
11.088691263481222, 41.12296036519224
11.403341386291979, 36.79873283137961
11.496077547969103, 38.12248733367119
11.547040509277435, 39.73816955103621
11.584848892299389, 43.36387721298731
11.709943766296286, 45.18993893174762
11.74096054986409, 41.815177052687616
11.905775748978064, 36.94499693781516
11.974082373464464, 38.536745028672556
12.152966378124143, 39.64657414020786
12.168587899403859, 43.339226165639595
12.387980842104716, 41.67445325331401
12.541928103398126, 44.84926366331229
12.682026384232481, 37.05059876480763
12.698722367643049, 43.52580940991956
12.763222265019143, 40.180564857128985
12.835502591768781, 38.62289808005437
12.972549363386344, 42.0992518292997
13.416160677519427, 43.466102771749966
13.417782021573169, 40.90437916683575
13.42539547579379, 45.302553715163036
13.476517140091511, 46.66748520929571
13.510184335069917, 39.10507330147935
13.898758238849565, 36.62383784780454
13.939288623240655, 38.295559377503295
13.998789376451041, 42.84896260653153
13.999561445048064, 41.629094223239065
14.000333513645083, 40.40922583994657
14.466298358296905, 43.41922105083088
14.521077697573011, 39.005026079115424
14.623135515241666, 42.02799633169967
14.623907583838685, 40.80812794840719
14.677888046580373, 37.65615790107077
15.168087266638677, 39.71091318995957
15.228874800844094, 37.75099366040479
15.247290781518027, 41.50860862940402
15.614314320583334, 36.571544497923
15.635930811543249, 35.27235321506997
15.768100376813203, 40.00105890832171
15.910229014231861, 38.38153473055722
16.207034242029337, 36.43770497687282
16.317166610441838, 34.91660116264282
16.52008115270037, 39.1267614102502
16.54941449528308, 37.58216799385629
16.847336465158385, 36.220661788181815
16.944023759368598, 34.69141448851181
17.06888154907344, 38.19583385038814
17.131946685640067, 37.11751137654943
17.542534745198665, 35.376476893637374
17.678228825610276, 33.69401624169417
17.734957995533016, 37.1507103262213
17.956130627837844, 32.67402783963034
18.16815996629461, 35.34266864766526
18.316969039587015, 37.50946486763685
18.408404020577024, 33.84875676262081
18.421777351632556, 36.18665400474164
18.470442693986428, 32.30622293854971
18.58056612641979, 31.711873094509983
18.82556922787431, 34.75848794787798
18.94144385647715, 36.485187195589575
19.120660279560546, 32.58958641122287
19.337572237015138, 31.194229695340923
19.46290470593148, 33.94865590304481
19.721861517520487, 35.482699015058216
19.898337097084465, 30.441820252411162
19.9554389785732, 32.3140281101408
20.04195411118738, 34.29324768347692
20.44982998520623, 35.21277525499987
20.460485144597968, 30.11150357098586
20.55611809539606, 31.551883324127374
20.572467362816298, 33.099094494989984
20.609519506689978, 29.314814564260317
20.76243198159989, 34.12458746019922
21.11403059092639, 35.306209852805964
21.17955097711937, 32.17386321564382
21.232316146699084, 30.942056364230737
21.45568524267459, 33.946582755886155
21.6970124397533, 35.95636309933033
21.708203145140118, 34.7024808050691
21.844737042618227, 32.535541609431405
21.925596215711188, 30.721695118831107
22.290445809773217, 34.69527483149692
22.32235368918009, 33.563122019365935
22.466178273312565, 32.19747207251103
22.56322420393576, 29.781967078620184
22.583966988645507, 30.89991428664335
22.932941994498805, 33.94524235901632
23.05086474951873, 32.43590186771591
23.164862861172686, 29.375162510757534
23.207780543079856, 30.92043129473086
23.537973550553964, 29.417499687664048
23.726499834136426, 32.71556227063671
23.816542334263957, 31.254973928344597
23.832257147165805, 29.893329853277805
23.965910248075012, 33.55396630190418
24.196818287821458, 28.84685520906619
24.29835066991714, 32.7000136669467
24.4091907678769, 30.973332291193373
24.45632984499499, 29.504400297528704
24.78192564864475, 28.42028730921234
24.87048030824677, 32.24395703595664
25.027960855689038, 29.83617533074836
25.079106110971672, 31.163833068724884
25.206915633303446, 26.353974387386316
25.34137781337955, 27.460348686916774
25.392541655498775, 28.758639223073303
25.59823538475083, 32.31119134294718
25.651148891584135, 30.84501163085524
25.70396052825533, 29.53978677489215
25.705751298473423, 26.710369830310967
25.964927756429503, 27.897371682355285
26.274424857513885, 31.71491847619822
26.275194781475918, 30.498438616192658
26.275966850072933, 29.27857023290018
26.506262044754223, 26.815671408404597
26.62566796805914, 28.24317109653869
26.87264719747032, 31.100973817117463
26.93062954910657, 29.83973542483463
27.10909320530787, 27.133506314178064
27.209906062363835, 32.12351433482144
27.264078827376437, 28.6677066994242
27.574714908361017, 30.685665250970146
27.784789948181583, 27.3157466725998
27.8878459147193, 28.76164171206169
27.95983926888195, 32.35094368440092
28.172746375803193, 30.37329916442559
28.423733008884632, 26.89940408601005
28.501531787844392, 28.356462971858633
28.565021562139385, 26.60721288720906
28.613735414094258, 31.776487883046343
28.77824117301656, 30.002752194319825
29.107516731636785, 28.171529146854112
29.199619485117452, 26.0158598131311
29.23807236159206, 30.970043850872713
29.276161079045067, 25.547977664796676
29.431925918493967, 29.762307974104843
29.70751151493048, 28.490631336940865
29.76036961869316, 27.11198847642777
29.861646431785665, 31.368945959333345
30.070523156804597, 29.892364767531518
30.29515375771988, 26.992419969365386
30.38330029838925, 28.52744757096545
30.433588414553512, 31.20938511594909
30.592835605070228, 26.010307353137534
30.676781839687308, 30.376851554483224
30.979069500859843, 28.055952817481938
30.99292668980049, 30.867988375645183
31.294348391656804, 26.471779187481687
31.318710372845295, 29.048429451938304
31.67588814797729, 27.93379218016115
31.77155112366526, 25.41543922230815
31.816344594753375, 29.867698550088846
32.02927191062071, 28.902401255351833
32.04808035949813, 26.5641057238754
32.39375262746417, 27.98299623439985
32.47969427911109, 25.17916172150568
32.56636357477305, 29.048236434789047
32.76533208613023, 26.79920061166817
33.14057887063214, 25.296840907265818
33.346789814356356, 28.032194161109985
33.3478149498824, 26.41248002996052
33.718696881633676, 24.151085279211614
33.77502409559879, 24.946750691216835
33.97078852227832, 27.76016865875974
33.97156059087534, 26.54030027546726
34.388407932629214, 25.018788980588837
34.59464139502085, 27.7185627399203
34.626583588587586, 26.532193555198546
34.79427688786045, 24.415696174566207
35.064080548359264, 25.239150225988453
35.218794516662214, 27.202563560911557
35.376832669202344, 23.913765801103168
35.636065423826956, 25.01181891686572
35.68722569155453, 26.31575699183378
35.75585401128969, 27.399226589652628
36.05233907572054, 24.396737601239337
36.311357366845975, 25.833643045694288
36.611150530751566, 24.449120310912193
36.91999864996863, 26.358588416382787
37.038249227765874, 27.264757975671557
37.15946859314452, 23.48024315634757
37.247721088995014, 24.84786157174844
37.24897033887769, 22.874046757115465
37.55878430978211, 26.19093923531547
37.84008453361194, 24.01360680856402
38.025993042729134, 27.235590939784103
38.16782694602464, 26.08174667659398
38.39248971646481, 23.13097402912399
38.39930128541551, 28.796127303917274
38.40008459772996, 27.558493847081692
38.49542504728424, 24.76747350347533
38.80680102734097, 25.616391521032654
38.96441561447022, 22.99682711039165
39.11965680554198, 24.127228470612735
39.48286503895701, 25.218347266568728
39.71383916380138, 24.02951481537076
39.73151401989746, 22.504472532166673
40.134405149442685, 22.499486255810908
40.21083994054773, 24.938257936649592
40.32860452873702, 23.678821037759803
40.772669969329606, 22.502881927881134
40.99124044451113, 23.962877942413627
41.14617959948821, 25.57049633220977
41.37354665252746, 22.258250563158526
41.6151844642408, 23.77725978387994
42.02146304475545, 22.526959030054897
42.20909133902924, 24.114810012755882
42.63503882661764, 22.29572448524722
42.85218955343465, 24.17365266940024
42.95864894292003, 25.02682844676994
43.234968296027496, 22.50467933625515
43.49810071194538, 23.960089916924375
43.52843032045306, 24.772251944572744
43.92087082066807, 22.20695804293979
44.11034932218686, 24.000516286518362
44.46987057061196, 21.790720134962726
44.63025709846802, 23.917840607587422
44.69325146207993, 22.951339402217187
45.139947476209436, 21.725952158212664
45.32982435992518, 23.719734824397364
45.73751167317917, 21.737039271230486
45.93015897038165, 23.50191009729251
45.983704072220014, 21.037810277201572
46.38861115865746, 21.954470165364143
46.591168869861505, 23.421602708145286
46.98492301876991, 22.11897926657474
47.177643818462556, 23.767716158166763
47.32387218098159, 20.8856841684553
47.49180067522521, 20.222848980346527
47.80272985632532, 21.777709349346267
47.853900847227855, 23.064704807879693
48.2115478378584, 21.20870704839922
48.42592861539538, 22.769603033018512
48.58411689238492, 19.243608643125455
48.74976420987568, 20.359762478218173
48.780260919457994, 21.457257988882887
49.34095551719997, 20.294357238499146
49.40384785746154, 21.835828957621985
49.95970186083898, 22.454127225735945
49.986590222047724, 21.039097058196603
50.03898365489554, 20.394634243183603
50.55809523543602, 21.569947834523035
50.83606227031124, 20.4468918491486
50.922970028959206, 20.02790165959884
51.23237651921519, 23.9886135623143
51.233582876398025, 22.082569213419802
51.59833703420292, 20.731127473385058
52.17058998904458, 20.080230753396904
52.20697525356132, 21.26091359162632
52.32684809454158, 19.603907321735036
52.51748744742016, 22.06199133656571
52.79358500779042, 21.39403414932687
52.794357076387435, 20.174165766034392
53.15852682115709, 19.746096621686334
53.41752366593261, 21.216887299010494
53.46874192209177, 19.07992135544353
53.73621642570276, 19.63164460096135
54.05423898703801, 21.386903237979382
54.11146321020467, 19.954555142881873
54.32634491320044, 22.679635595115684
54.62406099811654, 20.470039609492602
54.77789015129719, 19.13790877567621
55.31317628345813, 20.358623872004387
55.340446292211986, 22.07409790520248
55.39411578287987, 19.41346373446997
55.96512127503467, 20.733558059708997
56.05500190628306, 19.52872254645375
56.188637271566556, 21.645269185276774
56.5626898587578, 21.152548249258786
56.67869546328334, 19.73883550035721
57.09289188299923, 18.494487640516326
57.16057656333803, 21.068907484581544
57.302462550626196, 19.832770512994713
57.83769359073502, 19.007098296238155
57.91251873579535, 20.255603405674663
58.512747479269954, 20.2050485099152
58.72053766557264, 21.242646655647974
59.11107919561098, 19.418289163201337
59.13623576406389, 20.739491549852772
59.50105426091853, 19.286394111210342
59.55244507690772, 20.22606593283409
