0.17179839612368752, 41.00986303890372
0.1727618733937195, 39.48756895225331
0.27729674447781427, 38.59679480844083
0.32636813772344553, 43.20115456487243
0.38943327429007546, 42.12283209103373
0.74454622548968, 39.577064570457935
0.8371815893221974, 41.060079667234916
0.8461933455574204, 43.24893703248804
1.3837032135331473, 38.82271678599756
1.420076222992785, 40.022762614437966
1.4294418440016425, 41.65251363734869
1.9036485209266587, 42.59203533452304
1.9921290119018753, 39.688128067896
2.0951000866378404, 41.268152154131954
2.4579508808875854, 42.92402483124189
2.574837777206513, 38.94448303329909
2.6675567818037056, 40.295345721886065
2.7185663889231098, 41.83732755776049
3.259698652631611, 41.07482617743801
3.313874706084542, 39.96059883732072
3.3420294742558934, 42.41158574631942
3.7222132085087463, 44.06046691335631
3.8289516920468376, 39.68798509222988
3.9149944479147987, 40.63569929507261
3.9198627693460093, 42.07010266537053
4.3524122511586025, 43.94793206633603
4.533204980960919, 42.04197545250938
4.74619063165718, 41.5403063345817
4.8848320925793, 45.43052102135493
4.98963121333202, 44.122232401117955
5.169026866625439, 46.98377597787514
5.195706125922483, 43.16122146132653
5.209539021619102, 48.684299955512756
5.489692690587974, 44.1063621021792
5.627492637589535, 45.41487539846291
5.938293140590142, 47.17304716467807
6.228319279304257, 45.24930957710184
6.252239108245279, 43.96138477673866
6.425825864475401, 48.960657620546286
6.5275316045662475, 47.0640997070985
6.559908444157971, 50.66680054186221
6.964472388996745, 52.12562415593254
7.002898886460953, 48.90777092165037
7.079948115491119, 50.37573068078546
7.35067557751262, 53.84643638059187
7.570359069513147, 52.09594630698343
7.601214518039532, 48.14642549958843
7.601686337737712, 47.40095037646525
7.62578037489328, 50.95916592904756
7.700897152454852, 54.92218529244051
7.7797171676043195, 49.858795661053044
7.803861078407513, 56.51350445629955
8.169523489131405, 53.72702310425268
8.170550769292438, 52.10392044981631
8.202471516509258, 50.95143649796378
8.272501355211508, 55.29631686674672
8.431837011921628, 49.957462518349566
8.794296410285385, 52.23174069532303
8.79502558618257, 51.07964277776903
8.83379343804963, 53.71089544911492
8.84449159226668, 55.060514249406694
8.969116331635744, 49.80680191018098
9.387789830085067, 50.87577377545576
9.417269982681303, 53.57942932412226
9.440533144812958, 52.02527362090551
9.520362586733464, 54.96743709076588
9.675719945533936, 55.91429343961192
9.721053239988992, 49.997417068245376
10.042066494820189, 52.04687315903645
10.05140852484414, 53.71389793810333
10.074030134736839, 50.82661874144545
10.262023690987364, 49.49057976992127
10.456200873309529, 54.81184382211632
10.640837861334505, 50.56546653850325
10.687515841929377, 53.084478205675154
10.70325133524008, 51.690159084627304
11.110068985078728, 56.62845689185593
11.131744810940079, 55.23551646473135
11.1353156282013, 49.59362519200362
11.184427769511773, 54.13360300598368
11.272100447973441, 52.5060395107645
11.290432787882695, 50.91999614898511
11.703397267984046, 55.53340626508177
11.724430775665377, 49.67951782342216
11.808109071454963, 54.36307895009812
11.808881140051982, 53.143210566805635
11.950675214411936, 52.05229602180123
11.966233009394754, 50.93874025881278
12.304693942201121, 50.0620134741961
12.420912784720128, 55.35171278858294
12.432047729597157, 54.18593209978173
12.500682176860865, 51.34842681751749
12.562838294567433, 52.87974215807237
12.747105333056338, 49.217885141453614
12.967386154643767, 50.25712164256816
13.029634185278548, 54.576684595273804
13.161706169656378, 51.24585198962761
13.202426354244233, 52.617689208433646
13.575567107184272, 54.442859371790234
13.609930593656662, 49.430847396131796
13.784282984578832, 53.22041742650769
13.785055053175851, 52.00054904321521
13.796172840972948, 50.86187654070939
13.995154220140071, 48.59250957786696
14.271599815208257, 49.873328487624235
14.409100943067633, 51.65397602855264
14.460204914126672, 53.04686283980244
14.772016076367132, 53.20819300705486
14.838388240090998, 46.90476762478003
14.840355845212494, 49.76956324805193
14.9681858390601, 48.340851980409546
14.980919823786964, 51.68891642183781
15.036127875597915, 46.59735564506634
15.47202493766577, 50.17892671888778
15.554529045797382, 48.89511757519919
15.555301114394402, 47.67524919190671
15.604777843653471, 51.639178047109745
15.691311720934534, 46.33510967827836
16.07380951634346, 49.803584957693374
16.18448697948301, 48.33386659786507
16.298190977518466, 46.23056457143634
16.425888115406195, 45.011765720399474
16.80324276972855, 47.219299792666234
16.825788732496093, 48.931751840194174
16.90873200338396, 44.82063278617278
17.064110808534345, 45.73360390214959
17.42642008244868, 48.245078709207704
17.427181427870742, 47.04215294234984
17.66190100453995, 45.80244668538392
17.94925206854105, 43.54215152855648
17.983711144458788, 47.76621235319853
18.20836472360613, 44.829961948386774
18.296564369522905, 46.28108325907256
18.7294595553552, 42.87173863014363
18.791102798922317, 44.04000709553524
18.86067077516028, 46.76785412690837
18.91488469673964, 45.59379514703912
19.404497359127703, 44.09510276847262
19.467447757722276, 47.3049243447108
19.557683274999057, 48.472838945328775
19.57672763372556, 45.761805852290756
19.69966883462613, 43.168084293300026
20.124648172703978, 44.443192346450765
20.183087433718924, 45.98020118228129
20.259089212806593, 43.23619177310862
20.601005305772837, 42.76725201334685
20.75541902517695, 45.20505860843926
20.806504230679806, 46.62759499844964
20.854343888561864, 44.051745397723266
21.37873573917154, 46.01058351133071
21.429778051974573, 47.500890367079556
21.48351188169221, 44.738600497739334
21.58816738849459, 43.65722191903742
21.91980876499781, 47.688454015927164
21.931099848820722, 48.554397123677134
22.00239559476482, 46.27394468831438
22.108967869091053, 42.16407342192454
22.21233391410466, 43.12004446948541
22.25294901157792, 44.65791932935068
22.574412639757377, 45.99578552988781
22.784133814804306, 43.18497329385984
22.857394163151056, 44.7724244553231
23.096745640775012, 42.081254767327465
23.097274650739635, 41.245419023219654
23.2875190933269, 45.74008376358886
23.501190915810902, 43.72757666994091
23.720427836316112, 42.30931882673903
23.825408255319736, 40.71457897006819
24.07268895913547, 44.26944014694985
24.32977493413336, 41.71907697996322
24.343623914592428, 43.30544816451992
24.397095026523573, 40.958252397827835
24.59185511855432, 44.56107094459627
24.915860784671636, 42.67996536918368
24.946258841044333, 43.93333295104689
25.035024503484507, 41.07665574605272
25.437650478158034, 39.623860505977305
25.538641339918307, 44.33262109380602
25.53940268534037, 43.12969532694815
25.644157381511114, 41.89159754622602
25.68215418603591, 40.52604717171002
26.130528428109187, 40.038847376875864
26.163373513007443, 42.90172062732792
26.30530545675972, 41.59297244244986
26.3208326140998, 40.52782415498888
26.851132219233357, 40.45349110617573
26.89094093394973, 43.26545072192427
26.89171300254675, 42.04558233863179
27.30918228844822, 39.54139929054554
27.35814966689675, 44.310102426392916
27.46559587998211, 38.81940792058171
27.51500827019143, 42.884992474392476
27.51597335593771, 41.36015699527687
27.974450850906415, 39.77273248856281
28.156640167015354, 42.131582201799915
28.192069537078623, 40.911284891509084
28.569581592290547, 39.936655519520215
28.636125403407846, 43.33582538729555
28.794686234133103, 41.56797212597492
29.221833185434726, 40.20050996255199
29.29957334437139, 43.314705838900856
29.402332704072442, 44.006485825963615
29.545540637974277, 37.99313367414534
29.64711144478023, 41.78558108980181
29.833108488829126, 39.95349090420524
29.90607254563922, 43.312847155241364
30.085417646822116, 39.213934973659235
30.226513182927626, 41.573486901667906
30.509439558564374, 40.437259283052654
30.6757766825814, 38.70343678340426
30.89753086840814, 37.41475778640232
31.02027690752446, 40.60520258549026
31.083380647520947, 39.46588669248693
31.54128166460388, 38.78929724529792
31.727242964736256, 40.664222940462494
32.12929462287043, 39.052131454826494
32.2320551148753, 40.96487625618798
32.30085240121017, 37.87008524149519
32.35158910352688, 39.84325666563063
32.8871994376528, 38.41829990184388
32.90609162942036, 39.85898398890329
33.323223135310634, 37.88849335850749
33.536396993974655, 40.57406248541044
33.547544806661634, 39.38795065688768
33.993157065242, 38.04962693421899
34.176873647416365, 39.820666510384484
34.59853176289584, 37.99921371434688
34.64091832887227, 36.7381683392133
34.76888226492345, 39.89805208966918
35.0543546286718, 40.60610333218679
35.25333600783892, 38.33673636934435
35.57643384788208, 37.09254782524573
35.67870880984365, 39.77243009502895
35.90224679582475, 38.59881689286155
36.042055550935224, 40.64470676203781
36.200158042525096, 37.254253303621695
36.49616975537563, 38.910953197085576
36.76606287779125, 37.50703428131287
36.8738726065077, 40.56833630998253
36.913766953435534, 36.2046689386721
37.082718234319266, 39.14088870584111
37.408464162418454, 37.819579087440076
37.509301833734135, 34.99526096049749
37.6560649530067, 36.761845109521914
37.71709697560118, 38.89584271168674
37.916750697838204, 35.56417369839379
38.23325056832931, 37.443696061223974
38.25941082595837, 36.26643442643373
38.278523813004604, 38.922779327182795
38.86860583341079, 37.48101271007995
38.90437923867066, 35.717139789178475
39.00660594634491, 38.473263832917496
39.44736418106067, 35.67794658470473
39.50401828875871, 37.42796873795133
39.751652142469744, 38.599582833930015
39.91140737723538, 39.668502228523465
39.974026280997315, 35.35355522338513
40.14083905441785, 36.97506472039909
40.25408864979082, 38.74245841707865
40.723836630568044, 35.775098549829806
40.77487179458777, 37.27670048320175
41.295539129095154, 35.99392280681869
41.383685669764525, 37.52895040841878
41.95969112308884, 37.989434178784606
41.97081320015592, 36.84398462970495
42.066299554295284, 34.93886247385687
42.33541544631557, 35.73256328916062
42.628926616891235, 37.42882659194801
42.907954352489455, 34.62986346424931
42.92783940813272, 36.066339981705895
43.00965294379699, 38.220411367393254
43.494282240405354, 35.208332796802694
43.53069201503629, 36.35028965461012
44.01438073601256, 34.82432058271317
44.19502129885595, 36.2404128552008
44.517545806477976, 37.72735978279596
44.77824763607192, 36.50427444701589
44.81808691183693, 35.16108955169929
45.35130482903547, 34.582681494431384
45.41955783764707, 36.25914266746187
45.8001662096283, 37.2370962236879
46.03120773728669, 35.586195200422424
46.252526919649284, 34.36257045644747
46.69157087612833, 36.10108306857181
46.8960440527564, 34.54178024137494
47.22167317484264, 36.33849416215564
47.34370290587172, 35.18489500010742
47.500518616466564, 33.82755551384544
47.845054227887, 37.042363366439375
47.91101783864494, 35.491309724549964
48.1328830093325, 34.02727464744973
48.57393523776171, 35.33062294779505
48.72326387441224, 34.06898013862806
48.77442955280699, 36.09346482536044
49.14558233321821, 35.63698405636279
49.33087099783044, 34.09446508690634
49.74485768895558, 33.359274463402556
49.769542437710314, 35.42595197317716
50.00935552248486, 34.35221901822074
50.39354543490226, 35.14714942425307
50.642701979457435, 33.91291198651605
51.122421083189515, 33.44388031382606
51.251581725566076, 34.712968070178604
51.54741396310545, 35.47985093978917
51.769777205773146, 33.60221286626049
52.16098202428166, 35.260815078814446
52.19299713543811, 33.959236102337286
52.42224682056092, 33.14824238021693
52.802556730839136, 34.5977654272065
53.04598978076013, 33.28029827983232
53.51283124496482, 34.90523459718662
53.62806033843514, 33.54502130003574
53.86070176379737, 32.85088873861443
54.24072036115587, 34.76068619874445
54.263894674123584, 33.3469121745574
54.68892762807622, 32.972789791544
54.864959268196905, 34.10914608825877
55.28162699677022, 32.87142361866019
55.51100604933949, 34.202805362111604
56.02919911924253, 33.21894109757871
56.21630449965702, 34.549868579058
56.65688953884996, 32.85786855067839
56.75348194920901, 34.560162827018274
57.12955202368736, 34.99996083438418
57.16989142798541, 33.7304750365534
57.37181453148285, 32.2889943707828
57.828365858277685, 33.74491557883101
57.86386671617401, 32.41166749230939
58.40002546410495, 34.031510301558356
58.4973581913222, 32.78624331243532
58.99785855281039, 34.032582619054224
59.180815576758526, 32.4405485768646
59.543984491865366, 33.593790299747525
59.54459571283801, 32.62806116297432
